personId,classId,testNumber,futureValue
0,0,0,7953.9162949628135
0,0,0,2.7094904073694543
0,0,0,19.884790737407034
0,0,0,6942.509440944049
0,0,0,5637.938568290238
0,0,0,2.7094904073694543
0,0,0,54.18980814738909
0,0,0,30.367844663112074
0,0,0,2.791130466408611
0,0,0,12.199059086934387
0,0,0,70.0
0,0,0,137.0
0,0,0,368882.39579316176
0,0,0,914.8646512152782
0,0,0,30.367844663112074
0,0,0,3467.66666666667
0,0,0,8.669166666666676
0,0,0,73.43740707403612
0,0,0,282.2414803751111
0,0,0,7198994.468467654
0,0,0,125.98827632575569
0,0,0,31319819.102407932
0,0,0,244686.08673756197
0,0,0,1.0481728109917396
0,0,0,7891860047.093704
0,0,0,62639638.204815865
0,0,0,15873.045771534971
0,0,0,363.0
0,0,0,20479.815834657165
0,0,0,0.2009476776788776
0,0,0,181.84540524748527
0,0,0,63.647512626961976
0,0,0,-1.778489560488746
0,0,0,1.6068267502927494
0,0,0,81.0
0,0,1,8962.462979631533
0,0,1,-1.1167595926305418
0,0,1,22.406157449078833
0,0,1,7808.65834083419
0,0,1,6147.235828249677
0,0,1,-1.1167595926305418
0,0,1,22.335191852610837
0,0,1,31.0573559217272
0,0,1,2.9519911550230096
0,0,1,9.844449489033558
0,0,1,78.0
0,0,1,145.0
0,0,1,385823.74273953744
0,0,1,963.3122048611112
0,0,1,31.0573559217272
0,0,1,3302.166666666666
0,0,1,8.255416666666665
0,0,1,67.60407374070274
0,0,1,241.44603231669274
0,0,1,8495420.452626908
0,0,1,112.4483650072134
0,0,1,32849136.00409124
0,0,1,256633.87503196282
0,0,1,1.2970271115887937
0,0,1,7387663271.119294
0,0,1,65698272.00818248
0,0,1,12644.634792795494
0,0,1,369.0
0,0,1,22854.62249590673
0,0,1,0.14636764489544327
0,0,1,160.73545220177877
0,0,1,63.902479568506145
0,0,1,-1.8864268954778358
0,0,1,1.4660792761602275
0,0,1,65.0
0,0,2,7251.702943627433
0,0,2,1.1074070740361175
0,0,2,18.129257359068585
0,0,2,6173.964986498459
0,0,2,4523.638981664992
0,0,2,1.1074070740361175
0,0,2,22.148141480722348
0,0,2,27.709341192394216
0,0,2,2.715896689861692
0,0,2,13.03626883764918
0,0,2,62.0
0,0,2,159.0
0,0,2,307123.035726606
0,0,2,766.5812388888891
0,0,2,27.709341192394216
0,0,2,3751.3333333333326
0,0,2,9.378333333333332
0,0,2,55.27074040736943
0,0,2,279.4733120765749
0,0,2,5008750.480339191
0,0,2,118.04761830951067
0,0,2,29268522.57350292
0,0,2,228660.33260549157
0,0,2,1.187137477646169
0,0,2,6910158762.480339
0,0,2,58537045.14700584
0,0,2,13935.240188547918
0,0,2,324.0
0,0,2,16549.025294221134
0,0,2,0.2713638620175282
0,0,2,189.11535976673434
0,0,2,63.93749479838517
0,0,2,-1.635072475135931
0,0,2,1.367603702530403
0,0,2,88.0
0,0,3,7423.200713404306
0,0,3,2.6674070740361198
0,0,3,18.558001783510765
0,0,3,6200.192759275667
0,0,3,4223.489461879667
0,0,3,2.6674070740361198
0,0,3,53.34814148072239
0,0,3,26.98561488086974
0,0,3,2.7343710065165654
0,0,3,11.132599313468587
0,0,3,68.0
0,0,3,161.0
0,0,3,291289.36419944733
0,0,3,721.10835
0,0,3,26.98561488086974
0,0,3,3513.8333333333335
0,0,3,8.784583333333334
0,0,3,54.6040737407028
0,0,3,232.79548025079708
0,0,3,4825448.958222439
0,0,3,116.29563600094053
0,0,3,24308870.034666773
0,0,3,189913.04714583416
0,0,3,1.2203759420395461
0,0,3,5654031002.291555
0,0,3,48617740.069333546
0,0,3,13524.674952863255
0,0,3,375.0
0,0,3,16016.78700457339
0,0,3,0.21891415530028904
0,0,3,160.07848024589856
0,0,3,63.59098126564274
0,0,3,-1.7173378595682927
0,0,3,1.580379076676081
0,0,3,84.0
0,0,4,7599.75260192699
0,0,4,-1.4959262592972165
0,0,4,18.999381504817475
0,0,4,6670.929452945415
0,0,4,5470.622016268623
0,0,4,-1.4959262592972165
0,0,4,29.918525185944326
0,0,4,27.25726999527789
0,0,4,2.775792433260386
0,0,4,9.70475456714785
0,0,4,62.0
0,0,4,165.0
0,0,4,297183.5070381906
0,0,4,740.7209722222219
0,0,4,27.25726999527789
0,0,4,3371.3333333333344
0,0,4,8.428333333333336
0,0,4,61.27074040736949
0,0,4,209.5161592514501
0,0,4,9278260.923438746
0,0,4,105.8020516740119
0,0,4,25597466.239497148
0,0,4,199980.20499607146
0,0,4,1.442675381047093
0,0,4,5416528891.590105
0,0,4,51194932.478994295
0,0,4,11194.074138430286
0,0,4,382.0
0,0,4,16494.848204837454
0,0,4,0.16610436502217485
0,0,4,137.74136517762318
0,0,4,63.77703172975137
0,0,4,-1.5660579905153504
0,0,4,1.092000304564958
0,0,4,82.0
0,0,5,7104.6636930358245
0,0,5,2.1424070740361207
0,0,5,17.76165923258956
0,0,5,6228.466845017734
0,0,5,5053.974989699135
0,0,5,2.1424070740361207
0,0,5,42.84814148072242
0,0,5,26.30066211172877
0,0,5,2.8105139787847313
0,0,5,12.608369009883486
0,0,5,60.0
0,0,5,154.0
0,0,5,276689.9310061301
0,0,5,687.134919444444
0,0,5,26.30066211172877
0,0,5,3733.5
0,0,5,9.33375
0,0,5,63.437407074036116
0,0,5,263.9020443050831
0,0,5,3993738.5470540514
0,0,5,123.3189083534597
0,0,5,24096505.013986077
0,0,5,188253.94542176623
0,0,5,1.0928807152802904
0,0,5,5943109386.9168625
0,0,5,48193010.027972154
0,0,5,15207.553157488994
0,0,5,321.0
0,0,5,15913.783709553642
0,0,5,0.2753899306269703
0,0,5,171.01347757081362
0,0,5,63.72357341783791
0,0,5,-1.8453131133476408
0,0,5,1.776792100257902
0,0,5,96.0
0,0,6,6184.205917258274
0,0,6,1.056990407369455
0,0,6,15.460514793145686
0,0,6,5353.94573290651
0,0,6,4313.302271827255
0,0,6,1.056990407369455
0,0,6,21.139808147389097
0,0,6,23.035246500210008
0,0,6,2.5715596625805586
0,0,6,11.063948569585444
0,0,6,48.0
0,0,6,152.0
0,0,6,212249.03253017497
0,0,6,529.5053526041664
0,0,6,23.035246500210008
0,0,6,3507.166666666668
0,0,6,8.76791666666667
0,0,6,57.437407074036116
0,0,6,213.41136010631246
0,0,6,2835094.9739883747
0,0,6,120.93206810029177
0,0,6,17932397.54489253
0,0,6,140096.8558194729
0,0,6,1.1345363581666568
0,0,6,4337203842.200897
0,0,6,35864795.08978506
0,0,6,14624.565095013606
0,0,6,380.0
0,0,6,12110.856307362103
0,0,6,0.2673158937607566
0,0,6,139.22702404390915
0,0,6,63.881830062574295
0,0,6,-1.690833370127513
0,0,6,1.319321662483498
0,0,6,104.0
0,0,7,5585.163693035828
0,0,7,0.18282374070279034
0,0,7,13.96290923258957
0,0,7,4709.196476314223
0,0,7,3538.4871678837303
0,0,7,0.18282374070279034
0,0,7,3.6564748140558065
0,0,7,20.515175633930067
0,0,7,2.423069862289105
0,0,7,10.50223086987816
0,0,7,36.0
0,0,7,163.0
0,0,7,168348.97251639917
0,0,7,420.8390067708335
0,0,7,20.515175633930067
0,0,7,3391.333333333332
0,0,7,8.47833333333333
0,0,7,45.27074040736943
0,0,7,198.30440459640545
0,0,7,3614525.1488958043
0,0,7,113.98714079533396
0,0,7,15408764.338336775
0,0,7,120380.97139325606
0,0,7,1.2656492256206484
0,0,7,3512801980.2322297
0,0,7,30817528.67667355
0,0,7,12993.068266695287
0,0,7,354.0
0,0,7,9307.511369431528
0,0,7,0.2916224253005585
0,0,7,126.03672401904943
0,0,7,64.07873588379486
0,0,7,-1.765825550324182
0,0,7,1.5743384055799303
0,0,7,95.0
0,0,8,6288.868123478677
0,0,8,1.426990407369457
0,0,8,15.722170308696693
0,0,8,5308.880909757414
0,0,8,3863.0511790846967
0,0,8,1.426990407369457
0,0,8,28.53980814738914
0,0,8,22.148968782220543
0,0,8,2.628575735398488
0,0,8,10.229573788490901
0,0,8,49.0
0,0,8,179.0
0,0,8,196230.72724631208
0,0,8,488.5405164930557
0,0,8,22.148968782220543
0,0,8,3513.500000000002
0,0,8,8.783750000000005
0,0,8,49.6040737407028
0,0,8,193.9520867165891
0,0,8,3811078.8375916113
0,0,8,119.22043450279827
0,0,8,17806459.684760015
0,0,8,139112.96628718762
0,0,8,1.1654422393300388
0,0,8,4245787721.147299
0,0,8,35612919.36952003
0,0,8,14213.512003036012
0,0,8,385.0
0,0,8,11072.008093848961
0,0,8,0.23873924505875532
0,0,8,129.05358132498392
0,0,8,63.770717033801475
0,0,8,-1.6697661075445347
0,0,8,1.399013485747314
0,0,8,95.0
0,0,9,7521.333333333334
0,0,9,1.9474070740361213
0,0,9,18.803333333333335
0,0,9,6668.759812647901
0,0,9,5637.348034536849
0,0,9,1.9474070740361213
0,0,9,38.94814148072243
0,0,9,27.08193462810393
0,0,9,2.8402327299440007
0,0,9,11.314200765343855
0,0,9,71.0
0,0,9,178.0
0,0,9,293372.4732803579
0,0,9,729.6387888888883
0,0,9,27.08193462810393
0,0,9,3743.0000000000014
0,0,9,9.357500000000003
0,0,9,61.604073740702745
0,0,9,228.36723282438217
0,0,9,6144422.351935628
0,0,9,124.95001115204268
0,0,9,24771443.11750283
0,0,9,193526.89935549087
0,0,9,1.065269148386536
0,0,9,6190384187.568339
0,0,9,49542886.23500566
0,0,9,15612.50528689559
0,0,9,366.0
0,0,9,15991.04488327371
0,0,9,0.22171211559171275
0,0,9,144.55641013807187
0,0,9,63.69330958737559
0,0,9,-1.737354266664838
0,0,9,1.4630860028524295
0,0,9,100.0
0,0,10,7350.667410074384
0,0,10,-1.7330095926305478
0,0,10,18.37666852518596
0,0,10,6383.032411574545
0,0,10,5164.65972513948
0,0,10,-1.7330095926305478
0,0,10,34.66019185261096
0,0,10,26.020607001782366
0,0,10,2.7258026161336195
0,0,10,11.013753711425041
0,0,10,60.0
0,0,10,172.0
0,0,10,270828.7954964822
0,0,10,674.068666493056
0,0,10,26.020607001782366
0,0,10,3641.500000000001
0,0,10,9.103750000000003
0,0,10,54.27074040736943
0,0,10,209.9948105081928
0,0,10,9833599.891981928
0,0,10,101.88687780398318
0,0,10,23212022.15432431
0,0,10,181343.9230806587
0,0,10,1.537469145970889
0,0,10,4730000929.641983
0,0,10,46424044.30864862
0,0,10,10380.9358686438
0,0,10,349.0
0,0,10,15258.02520419123
0,0,10,0.2164802131312729
0,0,10,139.68177945050755
0,0,10,63.727448769535684
0,0,10,-1.7179000278032384
0,0,10,1.2382223263631127
0,0,10,83.0
0,0,11,7112.994052738312
0,0,11,2.9157404073694613
0,0,11,17.78248513184578
0,0,11,6169.839057238822
0,0,11,4819.984391905848
0,0,11,2.9157404073694613
0,0,11,58.31480814738923
0,0,11,24.92801503910476
0,0,11,2.7234992835496374
0,0,11,11.474894805826754
0,0,11,74.0
0,0,11,186.0
0,0,11,248562.3735159332
0,0,11,612.9043916666669
0,0,11,24.92801503910476
0,0,11,3741.0000000000014
0,0,11,9.352500000000004
0,0,11,55.437407074036116
0,0,11,215.5556516277766
0,0,11,5406196.248450094
0,0,11,126.52787300585216
0,0,11,22247998.941618167
0,0,11,173812.49173139193
0,0,11,1.0393708268409334
0,0,11,5629983969.438793
0,0,11,44495997.883236334
0,0,11,16009.302647385051
0,0,11,382.0
0,0,11,13824.531078542723
0,0,11,0.2523470629988642
0,0,11,144.1451919640774
0,0,11,63.47668824159668
0,0,11,-1.6098465822338561
0,0,11,1.1680789504535096
0,0,11,97.0
0,0,12,7142.126672667345
0,0,12,-0.1825929259638815
0,0,12,17.855316681668363
0,0,12,6140.282783278401
0,0,12,4751.214848585219
0,0,12,-0.1825929259638815
0,0,12,3.65185851927763
0,0,12,25.010929192365104
0,0,12,2.638975000800955
0,0,12,10.749197738386636
0,0,12,61.0
0,0,12,161.0
0,0,12,250218.63162620037
0,0,12,625.5132388888888
0,0,12,25.010929192365104
0,0,12,3454.999999999999
0,0,12,8.637499999999998
0,0,12,62.27074040736949
0,0,12,200.72445009928623
0,0,12,6548602.752907204
0,0,12,109.1906344651072
0,0,12,21157193.32089806
0,0,12,165290.5728195161
0,0,12,1.3661523734881529
0,0,12,4620334724.419575
0,0,12,42314386.64179612
0,0,12,11922.594654892655
0,0,12,334.0
0,0,12,14168.007318326028
0,0,12,0.1962127090063502
0,0,12,126.53312020398455
0,0,12,64.0789768269106
0,0,12,-1.5679283712298837
0,0,12,1.418426239461925
0,0,12,89.0
0,0,13,6675.283675033773
0,0,13,1.0549070740361237
0,0,13,16.688209187584434
0,0,13,5761.797204720223
0,0,13,4678.668300663455
0,0,13,1.0549070740361237
0,0,13,21.09814148072247
0,0,13,24.658024846923936
0,0,13,2.5709884124895486
0,0,13,11.247101176697218
0,0,13,46.0
0,0,13,176.0
0,0,13,243207.2757406073
0,0,13,606.9053604166667
0,0,13,24.658024846923936
0,0,13,3653.499999999996
0,0,13,9.13374999999999
0,0,13,51.437407074036116
0,0,13,227.1579854576639
0,0,13,5151282.314851578
0,0,13,121.70360519511313
0,0,13,24968926.35859192
0,0,13,195069.7371764994
0,0,13,1.1208976499652836
0,0,13,6077616711.38385
0,0,13,49937852.71718384
0,0,13,14811.767517487968
0,0,13,382.0
0,0,13,13320.339439403178
0,0,13,0.24446973452916854
0,0,13,149.61512819213306
0,0,13,63.89917732496839
0,0,13,-1.5507521875784906
0,0,13,1.3137393165454732
0,0,13,85.0
0,0,14,7148.831846517909
0,0,14,0.746990407369451
0,0,14,17.872079616294773
0,0,14,6125.843145981232
0,0,14,4622.694172017434
0,0,14,0.746990407369451
0,0,14,14.93980814738902
0,0,14,24.726324254966766
0,0,14,2.815608339400718
0,0,14,11.605199695967825
0,0,14,65.0
0,0,14,199.0
0,0,14,244556.4444647031
0,0,14,610.8331164930559
0,0,14,24.726324254966766
0,0,14,3757.8333333333308
0,0,14,9.394583333333328
0,0,14,59.104073740702745
0,0,14,223.60520867815112
0,0,14,4589694.039812688
0,0,14,114.10013975742685
0,0,14,19714306.96435081
0,0,14,154018.0231589907
0,0,14,1.2634668701563105
0,0,14,4498810359.706481
0,0,14,39428613.92870162
0,0,14,13018.841892664339
0,0,14,389.0
0,0,14,13571.105442623126
0,0,14,0.2516358871291757
0,0,14,149.16815454032061
0,0,14,63.964684401143366
0,0,14,-1.6258652461750582
0,0,14,1.3149067001516945
0,0,14,97.0
0,0,15,6841.916294962816
0,0,15,-1.3463429259638822
0,0,15,17.10479073740704
0,0,15,5900.677594426131
0,0,15,4761.338332033494
0,0,15,-1.3463429259638822
0,0,15,26.92685851927764
0,0,15,23.897430712447672
0,0,15,2.810972949228793
0,0,15,11.438729908094322
0,0,15,55.0
0,0,15,166.0
0,0,15,228434.87786249493
0,0,15,569.2745553819447
0,0,15,23.897430712447672
0,0,15,3697.833333333335
0,0,15,9.244583333333336
0,0,15,52.937407074036116
0,0,15,223.56437209907457
0,0,15,6737608.941881748
0,0,15,108.15053427569937
0,0,15,20681919.52649643
0,0,15,161577.49630075335
0,0,15,1.3891577262216899
0,0,15,4473521293.275216
0,0,15,41363839.05299286
0,0,15,11696.538064119224
0,0,15,346.0
0,0,15,12882.10793295613
0,0,15,0.25344307462256144
0,0,15,147.24037710604316
0,0,15,63.83206902633095
0,0,15,-1.6175823251026868
0,0,15,1.38278372555971
0,0,15,96.0
0,0,16,6035.706660665983
0,0,16,0.7978237407027889
0,0,16,15.089266651664957
0,0,16,5277.008325832476
0,0,16,4459.800738907196
0,0,16,0.7978237407027889
0,0,16,15.95647481405578
0,0,16,21.016865523586215
0,0,16,2.6832660766334673
0,0,16,10.885712970089191
0,0,16,48.0
0,0,16,171.0
0,0,16,176683.4545746027
0,0,16,441.0721137152774
0,0,16,21.016865523586215
0,0,16,3560.9999999999973
0,0,16,8.902499999999993
0,0,16,46.6040737407028
0,0,16,199.0640489845045
0,0,16,4311203.357454903
0,0,16,126.5089659915917
0,0,16,18093450.18548026
0,0,16,141355.07957406453
0,0,16,1.0396873149644204
0,0,16,4577967348.370961
0,0,16,36186900.37096052
0,0,16,16004.518476261705
0,0,16,353.0
0,0,16,9706.118785931134
0,0,16,0.3054463408437886
0,0,16,128.33163238247676
0,0,16,63.92591479773795
0,0,16,-1.607677231266644
0,0,16,1.3779412274683223
0,0,16,107.0
0,0,17,5984.871097109513
0,0,17,0.6894904073694521
0,0,17,14.962177742773784
0,0,17,5011.612771277026
0,0,17,3682.527908291099
0,0,17,0.6894904073694521
0,0,17,13.78980814738904
0,0,17,21.059689731106335
0,0,17,2.614306337447096
0,0,17,11.054493385246365
0,0,17,39.0
0,0,17,178.0
0,0,17,177404.21262818621
0,0,17,443.0351345486113
0,0,17,21.059689731106335
0,0,17,3619.1666666666665
0,0,17,9.047916666666666
0,0,17,49.27074040736943
0,0,17,191.5591124556021
0,0,17,4218329.079151416
0,0,17,110.35040963035246
0,0,17,14476085.30346459
0,0,17,113094.4164333171
0,0,17,1.3408234979315936
0,0,17,3194883886.162485
0,0,17,28952170.60692918
0,0,17,12177.212905586584
0,0,17,381.0
0,0,17,9973.35512592187
0,0,17,0.3101278306610367
0,0,17,133.0633567862512
0,0,17,63.959106689432545
0,0,17,-1.5493297507490893
0,0,17,1.041875660794345
0,0,17,93.0
0,0,18,6075.123699036505
0,0,18,0.12324040736945889
0,0,18,15.187809247591263
0,0,18,5266.780181351407
0,0,18,4239.878684301901
0,0,18,0.12324040736945889
0,0,18,2.464808147389178
0,0,18,21.933965638130175
0,0,18,2.4902729541510173
0,0,18,10.45950672738578
0,0,18,52.0
0,0,18,158.0
0,0,18,192439.53944587012
0,0,18,481.0836604166672
0,0,18,21.933965638130175
0,0,18,3404.666666666668
0,0,18,8.51166666666667
0,0,18,50.1040737407028
0,0,18,199.30332137077855
0,0,18,3344108.7828173577
0,0,18,116.16071828866177
0,0,18,16669387.5025198
0,0,18,130229.58986343593
0,0,18,1.2229769358695106
0,0,18,3872656051.4494834
0,0,18,33338775.0050396
0,0,18,13493.31247333784
0,0,18,358.0
0,0,18,10464.192659345897
0,0,18,0.25077460161392146
0,0,18,125.97992511760496
0,0,18,64.0938792192571
0,0,18,-1.5693710841112372
0,0,18,1.3508301819245796
0,0,18,104.0
0,0,19,5625.039250591605
0,0,19,0.4682404073694544
0,0,19,14.062598126479013
0,0,19,4877.258697536331
0,0,19,4021.1363797380004
0,0,19,0.4682404073694544
0,0,19,9.364808147389088
0,0,19,19.69364938660245
0,0,19,2.45732220831541
0,0,19,9.950637006290922
0,0,19,42.0
0,0,19,171.0
0,0,19,155135.9304649708
0,0,19,387.62057708333344
0,0,19,19.69364938660245
0,0,19,3401.0000000000023
0,0,19,8.502500000000007
0,0,19,48.27074040736943
0,0,19,171.75201473391726
0,0,19,3632386.2320875884
0,0,19,123.31100008659506
0,0,19,14424835.826302461
0,0,19,112694.02989298798
0,0,19,1.0929895142929333
0,0,19,3557481863.6526046
0,0,19,28849671.652604923
0,0,19,15205.602742356246
0,0,19,341.0
0,0,19,8430.340388983122
0,0,19,0.27554728046105365
0,0,19,111.48334013852279
0,0,19,63.99057861975612
0,0,19,-1.3988489468053273
0,0,19,1.043568287170419
0,0,19,108.0
0,0,20,5818.622212221086
0,0,20,1.1111570740361236
0,0,20,14.546555530552714
0,0,20,5056.674620795296
0,0,20,4219.906277161092
0,0,20,1.1111570740361236
0,0,20,22.22314148072247
0,0,20,20.91788762392961
0,0,20,2.529013709767677
0,0,20,10.277949376516863
0,0,20,46.0
0,0,20,189.0
0,0,20,175023.20905893898
0,0,20,436.3233526041668
0,0,20,20.91788762392961
0,0,20,3554.8333333333344
0,0,20,8.887083333333337
0,0,20,50.27074040736943
0,0,20,176.00125249546718
0,0,20,3892005.368497527
0,0,20,123.55123506935185
0,0,20,16267820.884915033
0,0,20,127092.3506633987
0,0,20,1.0889024744759166
0,0,20,4019818724.436497
0,0,20,32535641.769830067
0,0,20,15264.907687162238
0,0,20,393.0
0,0,20,9435.795564758175
0,0,20,0.26847008104263137
0,0,20,116.20342036839415
0,0,20,63.818656314212234
0,0,20,-1.6275218839811647
0,0,20,1.2101498300584435
0,0,20,106.0
0,0,21,5927.665179851246
0,0,21,1.1599070740361186
0,0,21,14.819162949628115
0,0,21,5095.717960129301
0,0,21,4073.49515324883
0,0,21,1.1599070740361186
0,0,21,23.19814148072237
0,0,21,22.28062911423183
0,0,21,2.651219059778363
0,0,21,11.506747986907364
0,0,21,45.0
0,0,21,171.0
0,0,21,198570.57349038197
0,0,21,495.0810493055549
0,0,21,22.28062911423183
0,0,21,3691.16666666667
0,0,21,9.227916666666676
0,0,21,55.437407074036116
0,0,21,234.078348592043
0,0,21,3131170.318245407
0,0,21,122.52460852365127
0,0,21,18977823.186194293
0,0,21,148264.24364214292
0,0,21,1.1065660779957944
0,0,21,4650500713.039056
0,0,21,37955646.37238859
0,0,21,15012.279693873998
0,0,21,387.0
0,0,21,10242.953117147636
0,0,21,0.30898664620996485
0,0,21,152.8434064303484
0,0,21,63.88192589567677
0,0,21,-1.630698245941136
0,0,21,1.302106973383771
0,0,21,109.0
0,0,22,6932.500000000001
0,0,22,-1.2205095926305467
0,0,22,17.331250000000004
0,0,22,6065.760184351754
0,0,22,5066.732002767083
0,0,22,-1.2205095926305467
0,0,22,24.410191852610932
0,0,22,23.95932427847207
0,0,22,2.7435053061417625
0,0,22,9.902782098419486
0,0,22,57.0
0,0,22,158.0
0,0,22,229619.6879523925
0,0,22,572.5595762152773
0,0,22,23.95932427847207
0,0,22,3330.166666666663
0,0,22,8.325416666666657
0,0,22,53.6040737407028
0,0,22,186.50548924945716
0,0,22,5513635.5285646375
0,0,22,113.75306047259461
0,0,22,21430442.196078554
0,0,22,167425.3296568637
0,0,22,1.27037951417055
0,0,22,4875556774.169934
0,0,22,42860884.39215711
0,0,22,12939.758766881767
0,0,22,319.0
0,0,22,12350.520315249703
0,0,22,0.20123420168018655
0,0,22,127.67232160857742
0,0,22,63.81873544240301
0,0,22,-1.3971726556362285
0,0,22,1.0507083551299063
0,0,22,96.0
0,0,23,5988.665179851247
0,0,23,1.3240737407027887
0,0,23,14.971662949628117
0,0,23,4972.843889388939
0,0,23,3450.743547621728
0,0,23,1.3240737407027887
0,0,23,26.481474814055776
0,0,23,20.367533918898594
0,0,23,2.696828042688992
0,0,23,10.10126256614698
0,0,23,49.0
0,0,23,167.0
0,0,23,165934.5751749939
0,0,23,413.08326666666653
0,0,23,20.367533918898594
0,0,23,3455.999999999999
0,0,23,8.639999999999999
0,0,23,44.437407074036116
0,0,23,162.47497139680962
0,0,23,3485777.828866499
0,0,23,110.58326800270558
0,0,23,12113429.303322142
0,0,23,94636.16643220423
0,0,23,1.335826303870763
0,0,23,2679085198.162199
0,0,23,24226858.606644284
0,0,23,12228.659162158208
0,0,23,339.0
0,0,23,9567.772131438374
0,0,23,0.2603873822210642
0,0,23,114.42551047289166
0,0,23,63.75423227960632
0,0,23,-1.3541236321927699
0,0,23,0.9156068655365677
0,0,23,104.0
0,0,24,6462.373327332649
0,0,24,1.0894904073694556
0,0,24,16.155933318331623
0,0,24,5591.925735906857
0,0,24,4483.708904323872
0,0,24,1.0894904073694556
0,0,24,21.78980814738911
0,0,24,22.49782487033715
0,0,24,2.751180878414576
0,0,24,12.129622827210312
0,0,24,56.0
0,0,24,191.0
0,0,24,202460.84955854437
0,0,24,504.9651345486109
0,0,24,22.49782487033715
0,0,24,3837.1666666666683
0,0,24,9.592916666666671
0,0,24,51.27074040736943
0,0,24,194.55268302753066
0,0,24,3343995.6486004284
0,0,24,121.47417377069091
0,0,24,17847483.35157091
0,0,24,139433.46368414775
0,0,24,1.1249003251342709
0,0,24,4336016588.036476
0,0,24,35694966.70314182
0,0,24,14755.974893272012
0,0,24,385.0
0,0,24,11058.561833683672
0,0,24,0.2926503108414673
0,0,24,127.09122494642631
0,0,24,63.85038756626043
0,0,24,-1.4184029905921645
0,0,24,1.205644084702147
0,0,24,107.0
0,0,25,5985.955545554416
0,0,25,-0.06717625929721137
0,0,25,14.96488886388604
0,0,25,5142.841659165804
0,0,25,4141.634836517074
0,0,25,-0.06717625929721137
0,0,25,1.3435251859442277
0,0,25,21.625322219271396
0,0,25,2.625138767409224
0,0,25,10.412278942230467
0,0,25,33.0
0,0,25,190.0
0,0,25,187061.82443492525
0,0,25,467.6500484375001
0,0,25,21.625322219271396
0,0,25,3590.833333333334
0,0,25,8.977083333333335
0,0,25,54.6040737407028
0,0,25,200.99099746857777
0,0,25,3528350.361653479
0,0,25,121.05491666919421
0,0,25,18844906.607852213
0,0,25,147225.83287384541
0,0,25,1.132317228679547
0,0,25,4562537198.104594
0,0,25,37689813.215704426
0,0,25,14654.292849785556
0,0,25,387.0
0,0,25,10640.101716368788
0,0,25,0.26616147816915453
0,0,25,129.10110207596657
0,0,25,64.10856120519934
0,0,25,-1.5556154295275988
0,0,25,0.9742991762533268
0,0,25,110.0
0,0,26,6700.411091108834
0,0,26,2.5103237407027854
0,0,26,16.751027727772083
0,0,26,5617.465358202312
0,0,26,3971.1590857420674
0,0,26,2.5103237407027854
0,0,26,50.20647481405571
0,0,26,22.372663257212718
0,0,26,2.7489217778504225
0,0,26,10.966678220367548
0,0,26,62.0
0,0,26,183.0
0,0,26,200214.42448825442
0,0,26,494.2343359375009
0,0,26,22.372663257212718
0,0,26,3626.333333333336
0,0,26,9.065833333333341
0,0,26,45.27074040736943
0,0,26,189.74183377244182
0,0,26,4152915.8076478518
0,0,26,119.4302736849617
0,0,26,16530681.845073743
0,0,26,129145.95191463862
0,0,26,1.161603946630238
0,0,26,3948527713.9123697
0,0,26,33061363.690147486
0,0,26,14263.590272464857
0,0,26,385.0
0,0,26,11218.863379894749
0,0,26,0.249090740686618
0,0,26,128.2439820894408
0,0,26,63.49763183952954
0,0,26,-1.4858348753463813
0,0,26,1.2898645770292314
0,0,26,90.0
0,0,27,8405.924472447638
0,0,27,-4.1634262592972044
0,0,27,21.014811181119093
0,0,27,7549.432054872406
0,0,27,6644.676686168889
0,0,27,-4.1634262592972044
0,0,27,83.26852518594409
0,0,27,30.999788185117676
0,0,27,2.8228719848655293
0,0,27,9.921752485089666
0,0,27,56.0
0,0,27,162.0
0,0,27,384394.7470088646
0,0,27,943.6527493055554
0,0,27,30.999788185117676
0,0,27,3434.1666666666665
0,0,27,8.585416666666667
0,0,27,72.27074040736949
0,0,27,220.5090035660382
0,0,27,12282855.190368742
0,0,27,106.5696227731736
0,0,27,35046344.706295475
0,0,27,273799.5680179334
0,0,27,1.424939948130043
0,0,27,7469751469.857037
0,0,27,70092689.41259095
0,0,27,11357.084498016522
0,0,27,378.0
0,0,27,21271.22396280244
0,0,27,0.14007529974900787
0,0,27,142.5528490657168
0,0,27,63.188817429889866
0,0,27,-1.6597137585659594
0,0,27,1.3221011014219672
0,0,27,87.0
0,0,28,6272.327386071643
0,0,28,2.2632404073694548
0,0,28,15.680818465179106
0,0,28,5435.484983498112
0,0,28,4352.716999699965
0,0,28,2.2632404073694548
0,0,28,45.2648081473891
0,0,28,23.016916624334147
0,0,28,2.550399258560425
0,0,28,11.758514811203934
0,0,28,53.0
0,0,28,158.0
0,0,28,211911.38035661983
0,0,28,524.65619375
0,0,28,23.016916624334147
0,0,28,3639.8333333333335
0,0,28,9.099583333333333
0,0,28,70.43740707403612
0,0,28,223.7147548449576
0,0,28,3317789.6790370923
0,0,28,126.49780645235259
0,0,28,19561507.91491545
0,0,28,152824.28058527695
0,0,28,1.0398623923678867
0,0,28,4948975684.274276
0,0,28,39123015.8298309
0,0,28,16001.695037256857
0,0,28,386.0
0,0,28,11195.06325635342
0,0,28,0.2874692302724252
0,0,28,148.4800542235945
0,0,28,63.6365229328071
0,0,28,-1.4717249524658127
0,0,28,1.422292200035588
0,0,28,100.0
0,0,29,5225.57850118321
0,0,29,1.085323740702788
0,0,29,13.063946252958026
0,0,29,4429.110541053903
0,0,29,3479.4676746340356
0,0,29,1.085323740702788
0,0,29,21.70647481405576
0,0,29,19.115976620898667
0,0,29,2.491461813160617
0,0,29,11.967726139503412
0,0,29,33.0
0,0,29,160.0
0,0,29,146168.22486829778
0,0,29,364.2426345486112
0,0,29,19.115976620898667
0,0,29,3658.166666666668
0,0,29,9.14541666666667
0,0,29,47.6040737407028
0,0,29,202.9679280413373
0,0,29,2233502.851630583
0,0,29,126.68906609913103
0,0,29,13455122.359026328
0,0,29,105118.14342989319
0,0,29,1.036764526520479
0,0,29,3409233771.8291645
0,0,29,26910244.718052655
0,0,29,16050.11946906999
0,0,29,391.0
0,0,29,7447.05468743786
0,0,29,0.41453577438650313
0,0,29,133.7659480149422
0,0,29,63.865101243360314
0,0,29,-1.4140841090463012
0,0,29,1.0973501384955062
0,0,29,105.0
0,0,30,5714.579244590932
0,0,30,0.3815737407027875
0,0,30,14.28644811147733
0,0,30,4931.444246091094
0,0,30,3932.1000624061826
0,0,30,0.3815737407027875
0,0,30,7.63147481405575
0,0,30,20.894120864827944
0,0,30,2.4604568292853823
0,0,30,10.831941945221574
0,0,30,36.0
0,0,30,177.0
0,0,30,174625.71468561536
0,0,30,436.4186881944443
0,0,30,20.894120864827944
0,0,30,3619.000000000001
0,0,30,9.047500000000003
0,0,30,46.6040737407028
0,0,30,197.57232168638134
0,0,30,4818362.08855585
0,0,30,125.6308849887995
0,0,30,18195116.615163386
0,0,30,142149.34855596395
0,0,30,1.0540604413144243
0,0,30,4571737205.674772
0,0,30,36390233.23032677
0,0,30,15783.119263068966
0,0,30,392.0
0,0,30,9381.905409806277
0,0,30,0.3034153509441007
0,0,30,129.9516511703588
0,0,30,64.03109995289029
0,0,30,-1.6373260130507474
0,0,30,1.422323916256298
0,0,30,101.0
0,0,31,5780.035533553052
0,0,31,0.6503237407027868
0,0,31,14.450088833882631
0,0,31,4861.881653165123
0,0,31,3588.6919760311134
0,0,31,0.6503237407027868
0,0,31,13.006474814055736
0,0,31,19.774735318208982
0,0,31,2.556606101480045
0,0,31,9.209998592512056
0,0,31,31.0
0,0,31,154.0
0,0,31,156416.06276208867
0,0,31,390.6172359375005
0,0,31,19.774735318208982
0,0,31,3252.1666666666642
0,0,31,8.13041666666666
0,0,31,36.27074040736943
0,0,31,153.74619431563877
0,0,31,3434932.6230769977
0,0,31,113.48595352471564
0,0,31,14170106.311538504
0,0,31,110703.95555889457
0,0,31,1.2757968144097473
0,0,31,3216216052.623077
0,0,31,28340212.62307701
0,0,31,12879.061647413919
0,0,31,384.0
0,0,31,8532.871408653691
0,0,31,0.24395793976683341
0,0,31,104.64544939657978
0,0,31,63.92599004404842
0,0,31,-1.5134915626965757
0,0,31,0.9799307165025035
0,0,31,87.0
0,0,32,6240.247398073015
0,0,32,-1.1425929259638785
0,0,32,15.600618495182538
0,0,32,5347.717588425444
0,0,32,4118.272994499681
0,0,32,-1.1425929259638785
0,0,32,22.85185851927757
0,0,32,23.753229762497945
0,0,32,2.5433212253658812
0,0,32,11.047831502004648
0,0,32,33.0
0,0,32,160.0
0,0,32,225686.36966000724
0,0,32,562.9104055555555
0,0,32,23.753229762497945
0,0,32,3586.6666666666656
0,0,32,8.966666666666665
0,0,32,63.604073740702745
0,0,32,240.24129028240066
0,0,32,5064353.921378503
0,0,32,123.15734792798627
0,0,32,25665202.63560607
0,0,32,200509.39559067241
0,0,32,1.0956140027557593
0,0,32,6321716581.271214
0,0,32,51330405.27121214
0,0,32,15167.732348655063
0,0,32,390.0
0,0,32,12357.076844069476
0,0,32,0.27829794620725906
0,0,32,157.6705546185657
0,0,32,63.89289606398724
0,0,32,-1.5601489744464645
0,0,32,1.1383407243272126
0,0,32,91.0
0,0,33,5331.785905256905
0,0,33,0.8349070740361196
0,0,33,13.329464763142262
0,0,33,4564.714243090748
0,0,33,3619.1042297895415
0,0,33,0.8349070740361196
0,0,33,16.69814148072239
0,0,33,19.319302587339035
0,0,33,2.472976575485116
0,0,33,10.357303698613789
0,0,33,35.0
0,0,33,153.0
0,0,33,149294.18098446587
0,0,33,372.5383826388891
0,0,33,19.319302587339035
0,0,33,3417.666666666665
0,0,33,8.544166666666664
0,0,33,49.1040737407028
0,0,33,181.08182255605155
0,0,33,3405529.6622675676
0,0,33,126.98507764654312
0,0,33,15065022.605228715
0,0,33,117695.48910334933
0,0,33,1.0319483051165366
0,0,33,3826066130.5437913
0,0,33,30130045.21045743
0,0,33,16125.209944898585
0,0,33,393.0
0,0,33,7847.674719131225
0,0,33,0.33293462453676276
0,0,33,120.43814085907995
0,0,33,63.90297856557224
0,0,33,-1.7519549199778153
0,0,33,1.4953613417145923
0,0,33,104.0
0,0,34,6464.202943627433
0,0,34,3.0419904073694584
0,0,34,16.160507359068582
0,0,34,5314.340915758094
0,0,34,3419.448757209283
0,0,34,3.0419904073694584
0,0,34,60.83980814738917
0,0,34,24.244081263233095
0,0,34,2.586550101927509
0,0,34,11.439642802882124
0,0,34,52.0
0,0,34,143.0
0,0,34,235110.1905193
0,0,34,578.5217706597222
0,0,34,24.244081263233095
0,0,34,3508.8333333333344
0,0,34,8.772083333333336
0,0,34,83.10407374070274
0,0,34,234.1596960098209
0,0,34,4534987.746879328
0,0,34,126.32750413958236
0,0,34,22487015.051869296
0,0,34,175679.80509272887
0,0,34,1.0425570272806575
0,0,34,5681456974.103739
0,0,34,44974030.10373859
0,0,34,15958.638302136198
0,0,34,393.0
0,0,34,12129.982999290052
0,0,34,0.25712056444553727
0,0,34,156.22729195852529
0,0,34,63.50093507377638
0,0,34,-1.5687177266355974
0,0,34,1.219772470455164
0,0,34,96.0
0,0,35,6858.298543187995
0,0,35,-3.910926259297212
0,0,35,17.145746357969987
0,0,35,5782.18354168782
0,0,35,4248.188779778625
0,0,35,-3.910926259297212
0,0,35,78.21852518594423
0,0,35,24.858432110320997
0,0,35,2.6369785351959925
0,0,35,10.643468272866798
0,0,35,41.0
0,0,35,131.0
0,0,35,247176.65879337522
0,0,35,602.6463027777774
0,0,35,24.858432110320997
0,0,35,3323.8333333333335
0,0,35,8.309583333333334
0,0,35,51.937407074036116
0,0,35,231.44401521649172
0,0,35,9945763.490457924
0,0,35,104.84952167715556
0,0,35,26356780.800784532
0,0,35,205912.35000612916
0,0,35,1.4650959915748212
0,0,35,5526991719.823791
0,0,35,52713561.601569064
0,0,35,10993.422195928315
0,0,35,383.0
0,0,35,14212.989459707342
0,0,35,0.22287618919809826
0,0,35,152.05723274486468
0,0,35,63.300590971426914
0,0,35,-1.4916732578031588
0,0,35,1.065540333395485
0,0,35,67.0
0,0,36,5979.452571923579
0,0,36,2.421573740702791
0,0,36,14.948631429808948
0,0,36,5282.797948127944
0,0,36,4523.991158149081
0,0,36,2.421573740702791
0,0,36,48.431474814055825
0,0,36,24.80156282751586
0,0,36,2.4548103840257127
0,0,36,11.288827301024622
0,0,36,43.0
0,0,36,110.0
0,0,36,246047.00747488657
0,0,36,609.2534993055552
0,0,36,24.80156282751586
0,0,36,3155.6666666666615
0,0,36,7.889166666666654
0,0,36,66.93740707403612
0,0,36,242.54544681544792
0,0,36,2540947.6412349013
0,0,36,127.64016673098371
0,0,36,21604459.6729177
0,0,36,168784.84119466954
0,0,36,1.0214681560875192
0,0,36,5515193669.568058
0,0,36,43208919.3458354
0,0,36,16292.01216311332
0,0,36,368.0
0,0,36,12156.66708544401
0,0,36,0.2948572256659876
0,0,36,170.1671838580555
0,0,36,63.668975657002655
0,0,36,-1.9936512076338724
0,0,36,1.9448939508881524
0,0,36,101.0
0,0,37,10042.788878887737
0,0,37,-0.0009262592972048367
0,0,37,25.106972197219342
0,0,37,7568.890202353797
0,0,37,4116.333974564794
0,0,37,-0.0009262592972048367
0,0,37,0.018525185944096734
0,0,37,35.088193697724975
0,0,37,3.0958902816602523
0,0,37,7.617372675124599
0,0,37,88.0
0,0,37,78.0
0,0,37,492472.5347876267
0,0,37,1231.1813361111112
0,0,37,35.088193697724975
0,0,37,2577.333333333335
0,0,37,6.443333333333337
0,0,37,66.93740707403612
0,0,37,174.29248247444008
0,0,37,15220077.17778339
0,0,37,127.00855215971083
0,0,37,34018971.1419139
0,0,37,265773.21204620233
0,0,37,1.0315889269748133
0,0,37,8641400541.394938
0,0,37,68037942.2838278
0,0,37,16131.172321705986
0,0,37,327.0
0,0,37,26449.08891573277
0,0,37,0.09941210158539517
0,0,37,141.18685427884836
0,0,37,64.12503427089406
0,0,37,-1.533586387000339
0,0,37,0.7362866987477127
0,0,37,44.0
0,0,38,10327.030329699064
0,0,38,7.456573740702781
0,0,38,25.817575824247662
0,0,38,8357.187927125548
0,0,38,7922.993973897023
0,0,38,7.456573740702781
0,0,38,149.1314748140556
0,0,38,33.59110724135986
0,0,38,3.303523229321435
0,0,38,8.653241320584417
0,0,38,116.0
0,0,38,81.0
0,0,38,451344.9942802155
0,0,38,1072.7619937499996
0,0,38,33.59110724135986
0,0,38,2789.666666666664
0,0,38,6.97416666666666
0,0,38,72.60407374070274
0,0,38,222.13039811783426
0,0,38,21381998.224225435
0,0,38,128.61964492909073
0,0,38,41949858.34384119
0,0,38,327733.2683112593
0,0,38,1.005910752216273
0,0,38,10791151770.021015
0,0,38,83899716.68768238
0,0,38,16543.013061685375
0,0,38,328.0
0,0,38,27255.569222329006
0,0,38,0.10888864326331966
0,0,38,141.68669007704003
0,0,38,62.43787858959731
0,0,38,-1.4481089269778058
0,0,38,0.8977285099832522
0,0,38,49.0
0,0,39,5712.254832150119
0,0,39,-2.570092925963876
0,0,39,14.280637080375298
0,0,39,4942.7609277594665
0,0,39,4165.34811031102
0,0,39,-2.570092925963876
0,0,39,51.40185851927752
0,0,39,21.06067396986042
0,0,39,2.4206152154010283
0,0,39,9.448002917020204
0,0,39,34.0
0,0,39,65.0
0,0,39,177420.7952259025
0,0,39,436.94661041666666
0,0,39,21.06067396986042
0,0,39,2853.1666666666674
0,0,39,7.132916666666668
0,0,39,60.604073740702745
0,0,39,203.56973886442816
0,0,39,6706738.2670790935
0,0,39,122.65513067485546
0,0,39,19912447.646115873
0,0,39,155565.99723528026
0,0,39,1.1043091058174606
0,0,39,4884727736.181121
0,0,39,39824895.292231746
0,0,39,15044.281080865869
0,0,39,359.0
0,0,39,9956.572596332233
0,0,39,0.24331779455248695
0,0,39,134.3957984001198
0,0,39,63.51210105464051
0,0,39,-1.5784990938572272
0,0,39,1.3328884863658381
0,0,39,69.0
0,0,40,4752.206660665982
0,0,40,-0.38092625929721435
0,0,40,11.880516651664955
0,0,40,4183.2372137212515
0,0,40,3569.7801055104683
0,0,40,-0.38092625929721435
0,0,40,7.6185251859442875
0,0,40,19.04821052643703
0,0,40,2.1918164806720237
0,0,40,8.401633223622827
0,0,40,24.0
0,0,40,73.0
0,0,40,145133.72970378658
0,0,40,362.6892194444444
0,0,40,19.04821052643703
0,0,40,2741.666666666667
0,0,40,6.854166666666668
0,0,40,64.60407374070274
0,0,40,177.37295391796704
0,0,40,4425315.7019459605
0,0,40,127.88261797318468
0,0,40,17014108.96531343
0,0,40,132922.72629151118
0,0,40,1.017583012638792
0,0,40,4351617593.930628
0,0,40,34028217.93062686
0,0,40,16353.963979675496
0,0,40,365.0
0,0,40,7318.785095511014
0,0,40,0.25426338684457706
0,0,40,117.29889477873128
0,0,40,64.02112177220363
0,0,40,-1.5003646056671767
0,0,40,1.1874184236143155
0,0,40,103.0
0,0,41,6231.825899256231
0,0,41,3.201157074036125
0,0,41,15.579564748140578
0,0,41,5414.109425942342
0,0,41,4205.531717205042
0,0,41,3.201157074036125
0,0,41,64.0231414807225
0,0,41,24.73220169907007
0,0,41,2.5802372493089574
0,0,41,11.48409479695662
0,0,41,55.0
0,0,41,77.0
0,0,41,244672.7203533938
0,0,41,601.4343942708329
0,0,41,24.73220169907007
0,0,41,3144.6666666666674
0,0,41,7.861666666666669
0,0,41,60.937407074036116
0,0,41,264.648689443945
0,0,41,4288242.645977107
0,0,41,128.26499413654057
0,0,41,25127295.445632603
0,0,41,196306.9956690047
0,0,41,1.0112678967653006
0,0,41,6445904806.002377
0,0,41,50254590.891265206
0,0,41,16451.908720846786
0,0,41,371.0
0,0,41,12420.180691166845
0,0,41,0.282857328771429
0,0,41,173.3640248891413
0,0,41,63.533210081340314
0,0,41,-1.7474492744736638
0,0,41,1.3526704417479998
0,0,41,96.0
0,0,42,6015.163693035828
0,0,42,1.9569904073694568
0,0,42,15.03790923258957
0,0,42,5074.696104610364
0,0,42,3466.677005767422
0,0,42,1.9569904073694568
0,0,42,39.13980814738914
0,0,42,21.901044436100218
0,0,42,2.4720650157590067
0,0,42,8.721737983354718
0,0,42,68.0
0,0,42,58.0
0,0,42,191862.29895681454
0,0,42,475.8259359374999
0,0,42,21.901044436100218
0,0,42,2721.8333333333344
0,0,42,6.804583333333336
0,0,42,44.937407074036116
0,0,42,189.10270908088728
0,0,42,2597162.4381004847
0,0,42,118.04252272841462
0,0,42,15080784.003094032
0,0,42,117818.62502417213
0,0,42,1.1872368541376968
0,0,42,3560347576.895078
0,0,42,30161568.006188065
0,0,42,13934.037172088283
0,0,42,373.0
0,0,42,10566.105078994147
0,0,42,0.19470392273384743
0,0,42,127.92947712116946
0,0,42,63.63476935259879
0,0,42,-1.8383377065066016
0,0,42,1.7990385161841966
0,0,42,94.0
0,0,43,6973.673357336069
0,0,43,-2.0271762592972187
0,0,43,17.434183393340174
0,0,43,6141.725022502554
0,0,43,5142.280624796362
0,0,43,-2.0271762592972187
0,0,43,40.543525185944375
0,0,43,25.68973925782178
0,0,43,2.6343090391101502
0,0,43,10.257479560767909
0,0,43,44.0
0,0,43,72.0
0,0,43,263985.08125394786
0,0,43,655.8532595486109
0,0,43,25.68973925782178
0,0,43,2949.1666666666674
0,0,43,7.372916666666669
0,0,43,68.77074040736949
0,0,43,250.49180795428975
0,0,43,7062432.689349418
0,0,43,111.94749988009585
0,0,43,26506124.553008053
0,0,43,207079.09807037542
0,0,43,1.3070161690710373
0,0,43,5934588750.439349
0,0,43,53012249.10601611
0,0,43,12532.242729404059
0,0,43,377.0
0,0,43,13944.804199403328
0,0,43,0.20646677843902222
0,0,43,162.24113212227945
0,0,43,63.7246274265291
0,0,43,-1.5365542381377908
0,0,43,1.3637631236559924
0,0,43,47.0
0,0,44,7625.238477180486
0,0,44,2.399907074036114
0,0,44,19.063096192951217
0,0,44,6520.462756275327
0,0,44,4943.536828782971
0,0,44,2.399907074036114
0,0,44,47.998141480722275
0,0,44,29.634822946110916
0,0,44,2.663172852654663
0,0,44,8.929455261184028
0,0,44,50.0
0,0,44,38.0
0,0,44,351289.0924189368
0,0,44,872.4631770833328
0,0,44,29.634822946110916
0,0,44,2583.3333333333353
0,0,44,6.458333333333338
0,0,44,64.77074040736949
0,0,44,231.09017930306774
0,0,44,9258221.135264503
0,0,44,115.52989527778425
0,0,44,28488972.029506568
0,0,44,222570.09398052006
0,0,44,1.2352168468007751
0,0,44,6582655910.281237
0,0,44,56977944.059013136
0,0,44,13347.156702895796
0,0,44,334.0
0,0,44,20438.107436556988
0,0,44,0.14551753075110632
0,0,44,161.2333988909583
0,0,44,63.64800283957483
0,0,44,-1.7981382914463555
0,0,44,1.401911160304719
0,0,44,57.0
0,0,45,7230.644514452411
0,0,45,-4.050509592630541
0,0,45,18.07661128613103
0,0,45,6297.104668800761
0,0,45,5393.725483281792
0,0,45,-4.050509592630541
0,0,45,81.01019185261083
0,0,45,25.55132408523291
0,0,45,2.8337008757058513
0,0,45,7.471537005101567
0,0,45,44.0
0,0,45,31.0
0,0,45,261148.06500344136
0,0,45,636.463534548611
0,0,45,25.55132408523291
0,0,45,2284.0000000000023
0,0,45,5.710000000000006
0,0,45,79.93740707403612
0,0,45,189.2416478147003
0,0,45,12491265.178240798
0,0,45,128.5578753444902
0,0,45,31708164.0224457
0,0,45,247720.03142535704
0,0,45,1.0069259177678955
0,0,45,8152668395.600448
0,0,45,63416328.0448914
0,0,45,16527.127313089484
0,0,45,326.0
0,0,45,13513.78010258882
0,0,45,0.13899254644659256
0,0,45,125.36513130036276
0,0,45,63.089310959002134
0,0,45,-1.6740214149590025
0,0,45,1.4027914891093167
0,0,45,20.0
0,0,46,6350.619981997954
0,0,46,2.9799070740361295
0,0,46,15.876549954994886
0,0,46,5766.151650164783
0,0,46,4908.681703837047
0,0,46,2.9799070740361295
0,0,46,59.59814148072259
0,0,46,24.319110819086323
0,0,46,2.387239797313946
0,0,46,7.453737388599158
0,0,46,68.0
0,0,46,25.0
0,0,46,236567.66041240058
0,0,46,582.539304861111
0,0,46,24.319110819086323
0,0,46,2227.666666666666
0,0,46,5.569166666666665
0,0,46,68.43740707403612
0,0,46,197.29857558642922
0,0,46,6524390.812105883
0,0,46,128.0757028704478
0,0,46,23348433.369345
0,0,46,182409.6356980078
0,0,46,1.0144539055883273
0,0,46,5980734029.405356
0,0,46,46696866.73869
0,0,46,16403.38566575923
0,0,46,306.0
0,0,46,12969.187877923367
0,0,46,0.16134444540323048
0,0,46,135.67953255369235
0,0,46,63.42105856149305
0,0,46,-1.460055952195828
0,0,46,0.676651663105662
0,0,46,68.0
0,0,47,6794.537020368477
0,0,47,2.7382404073694557
0,0,47,16.986342550921194
0,0,47,6098.798319831795
0,0,47,4968.288852285338
0,0,47,2.7382404073694557
0,0,47,54.76480814738912
0,0,47,25.897108672820693
0,0,47,2.429220627498602
0,0,47,8.157463315368089
0,0,47,69.0
0,0,47,27.0
0,0,47,268264.09504475386
0,0,47,663.1622770833332
0,0,47,25.897108672820693
0,0,47,2223.1666666666665
0,0,47,5.557916666666666
0,0,47,60.27074040736949
0,0,47,208.0231958088598
0,0,47,6814389.421526632
0,0,47,125.01233806971288
0,0,47,24824827.808149673
0,0,47,193943.96725116932
0,0,47,1.0642929863513277
0,0,47,6206819532.949633
0,0,47,49649655.616299346
0,0,47,15628.084669656186
0,0,47,287.0
0,0,47,14549.438688997006
0,0,47,0.16247183675220053
0,0,47,144.54108498193312
0,0,47,63.517838302161806
0,0,47,-1.618815241795994
0,0,47,1.320869510231758
0,0,47,58.0
0,0,48,7360.908860885702
0,0,48,0.24699040736945066
0,0,48,18.402272152214255
0,0,48,6639.903880387917
0,0,48,5724.394609127812
0,0,48,0.24699040736945066
0,0,48,4.939808147389013
0,0,48,28.33192072319663
0,0,48,2.617065945644363
0,0,48,7.987476273569132
0,0,48,49.0
0,0,48,25.0
0,0,48,321079.09274619946
0,0,48,802.6367276041677
0,0,48,28.33192072319663
0,0,48,2092.3333333333353
0,0,48,5.230833333333338
0,0,48,65.27074040736949
0,0,48,205.5312059907367
0,0,48,10354032.349960435
0,0,48,109.91512743199947
0,0,48,26213237.177159525
0,0,48,204790.9154465588
0,0,48,1.3504520245017155
0,0,48,5762462609.46543
0,0,48,52426474.35431905
0,0,48,12081.335238392681
0,0,48,260.0
0,0,48,18806.618908835437
0,0,48,0.1243483224300343
0,0,48,136.5692611507733
0,0,48,64.06725821590068
0,0,48,-1.6622631607442848
0,0,48,1.364597386495164
0,0,48,42.0
0,0,49,6693.88001800206
0,0,49,-1.2730095926305487
0,0,49,16.734700045005148
0,0,49,5879.952795279772
0,0,49,4555.0910292368735
0,0,49,-1.2730095926305487
0,0,49,25.460191852610972
0,0,49,26.993043608480285
0,0,49,2.484926821958073
0,0,49,8.170966252624691
0,0,49,46.0
0,0,49,34.0
0,0,49,291449.76129972737
0,0,49,727.0038498263891
0,0,49,26.993043608480285
0,0,49,2093.333333333332
0,0,49,5.233333333333331
0,0,49,62.604073740702745
0,0,49,246.962553337949
0,0,49,6860879.069445903
0,0,49,117.58389831352372
0,0,49,31564965.781059433
0,0,49,246601.29516452682
0,0,49,1.1958015320953284
0,0,49,7423063453.339896
0,0,49,63129931.562118866
0,0,49,13825.973142605086
0,0,49,220.0
0,0,49,16230.711637134997
0,0,49,0.15643356497541203
0,0,49,159.660078419861
0,0,49,63.869601340698914
0,0,49,-1.5384751141943478
0,0,49,0.941732802058201
0,0,49,17.0
0,0,50,7185.380761409764
0,0,50,2.9461570740361207
0,0,50,17.963451903524412
0,0,50,6642.451680168205
0,0,50,5774.1264036739585
0,0,50,2.9461570740361207
0,0,50,58.923141480722414
0,0,50,28.230356512649326
0,0,50,2.3058356598711756
0,0,50,6.149827988982174
0,0,50,81.0
0,0,50,24.0
0,0,50,318781.21153251285
0,0,50,788.2731873263875
0,0,50,28.230356512649326
0,0,50,1812.6666666666658
0,0,50,4.5316666666666645
0,0,50,75.93740707403612
0,0,50,184.20500872912132
0,0,50,5200488.711299637
0,0,50,119.8638152594859
0,0,50,20134344.330646887
0,0,50,157299.5650831788
0,0,50,1.153721862729345
0,0,50,4826758658.439072
0,0,50,40268688.661293775
0,0,50,14367.334208560165
0,0,50,208.0
0,0,50,18058.75469397546
0,0,50,0.09772975187122199
0,0,50,127.40382382811856
0,0,50,63.38381065911454
0,0,50,-1.7165852533975932
0,0,50,1.3413906322020799
0,0,50,19.0
0,0,51,7685.663693035825
0,0,51,1.7390737407027914
0,0,51,19.214159232589562
0,0,51,7028.4887005366745
0,0,51,5784.655544321353
0,0,51,1.7390737407027914
0,0,51,34.78147481405583
0,0,51,30.23940654231093
0,0,51,2.4540096506035556
0,0,51,5.743386980938148
0,0,51,71.0
0,0,51,25.0
0,0,51,365768.68321246287
0,0,51,911.3973305555563
0,0,51,30.23940654231093
0,0,51,1484.6666666666674
0,0,51,3.7116666666666687
0,0,51,58.77074040736949
0,0,51,202.0838271852303
0,0,51,7860417.240938301
0,0,51,117.88885819173174
0,0,51,30188975.350229546
0,0,51,235851.36992366833
0,0,51,1.190106099108538
0,0,51,7117887668.0337925
0,0,51,60377950.70045909
0,0,51,13897.782885750237
0,0,51,109.0
0,0,51,19714.67404270976
0,0,51,0.09394905959328226
0,0,51,134.7480334986886
0,0,51,63.71144069808398
0,0,51,-1.5344536241120803
0,0,51,0.9037674559045666
0,0,51,18.0
0,0,52,7588.875557555785
0,0,52,2.693657074036125
0,0,52,18.972188893889463
0,0,52,6623.388343834522
0,0,52,4800.196640331359
0,0,52,2.693657074036125
0,0,52,53.87314148072251
0,0,52,28.99849947139037
0,0,52,2.6263927384199004
0,0,52,8.237971493316817
0,0,52,78.0
0,0,52,26.0
0,0,52,336365.1886368911
0,0,52,833.6571831597232
0,0,52,28.99849947139037
0,0,52,1607.8333333333326
0,0,52,4.0195833333333315
0,0,52,58.937407074036116
0,0,52,251.688176600013
0,0,52,6318969.466599707
0,0,52,119.3428811492067
0,0,52,30312953.988235388
0,0,52,236819.95303308897
0,0,52,1.1631988808355922
0,0,52,7235270530.198694
0,0,52,60625907.976470776
0,0,52,14242.723280993678
0,0,52,91.0
0,0,52,18777.497712081884
0,0,52,0.1370707848594238
0,0,52,165.77351143680315
0,0,52,63.60425843280532
0,0,52,-1.8129079565610615
0,0,52,1.493702088991908
0,0,52,4.0
0,1,0,5459.393207488788
0,1,0,-10.491737488827546
0,1,0,13.64848301872197
0,1,0,5001.420129094348
0,1,0,4693.8816720330005
0,1,0,-10.491737488827546
0,1,0,209.83474977655092
0,1,0,26.445191668792887
0,1,0,2.134126571098278
0,1,0,7.428672505897246
0,1,0,11.0
0,1,0,32.0
0,1,0,279739.2649596771
0,1,0,589.2716068647227
0,1,0,26.445191668792887
0,1,0,1748.666612089377
0,1,0,4.371666530223442
0,1,0,37.1040737407028
0,1,0,239.16636261143836
0,1,0,15593464.814327586
0,1,0,100.81806855743149
0,1,0,35412113.259545065
0,1,0,276657.1348401958
0,1,0,1.5646542926707996
0,1,0,7140361724.728686
0,1,0,70824226.51909013
0,1,0,10164.282947650956
0,1,0,141.0
0,1,0,14485.601444987069
0,1,0,0.16751793951801813
0,1,0,154.79812721337237
0,1,0,61.952139410165934
0,1,0,-1.421457750943407
0,1,0,0.6276518545311224
0,1,0,25.0
0,1,1,5710.624749233602
0,1,1,0.7528774993347507
0,1,1,14.276561873084006
0,1,1,5122.114438775798
0,1,1,4350.632828474735
0,1,1,0.7528774993347507
0,1,1,15.057549986695014
0,1,1,34.274232997218384
0,1,1,1.9804846956092785
0,1,1,15.638009163200547
0,1,1,34.0
0,1,1,33.0
0,1,1,469889.2190190454
0,1,1,1174.156223018607
0,1,1,34.274232997218384
0,1,1,2697.6666120893733
0,1,1,6.744166530223433
0,1,1,111.77079498466082
0,1,1,408.75434129071544
0,1,1,5152400.774728812
0,1,1,128.92724430782476
0,1,1,58861048.64155128
0,1,1,459851.94251211936
0,1,1,1.0010357410417716
0,1,1,15177585596.848078
0,1,1,117722097.28310256
0,1,1,16622.234324809535
0,1,1,204.0
0,1,1,23381.1298170124
0,1,1,0.33579953435112425
0,1,1,266.6364230618937
0,1,1,64.0347122499024
0,1,1,-1.2142886996540485
0,1,1,0.6333074361894753
0,1,1,45.0
0,1,2,5151.6675870348045
0,1,2,-1.0229550153392164
0,1,2,12.879168967587011
0,1,2,4676.115829665195
0,1,2,4036.825235961022
0,1,2,-1.0229550153392164
0,1,2,20.45910030678433
0,1,2,32.91622692720308
0,1,2,1.9356416962134833
0,1,2,15.396377965921285
0,1,2,19.0
0,1,2,36.0
0,1,2,433391.19804925146
0,1,2,1082.4315581597227
0,1,2,32.91622692720308
0,1,2,2836.9999999999986
0,1,2,7.092499999999997
0,1,2,164.43746165132745
0,1,2,394.0656045038069
0,1,2,5149529.853036382
0,1,2,128.15337767957635
0,1,2,54489859.00156875
0,1,2,425702.02344975586
0,1,2,1.0132950544120964
0,1,2,13966118960.669806
0,1,2,108979718.0031375
0,1,2,16423.28821068414
0,1,2,236.0
0,1,2,22102.96153714151
0,1,2,0.342921909338856
0,1,2,253.30239911661417
0,1,2,63.99576056924894
0,1,2,-1.5331284536130672
0,1,2,1.2880989468742665
0,1,2,55.0
0,1,3,4733.664519141008
0,1,3,0.5353783179941195
0,1,3,11.83416129785252
0,1,3,4332.4465552887905
0,1,3,3813.17684900627
0,1,3,0.5353783179941195
0,1,3,10.70756635988239
0,1,3,28.975416314577792
0,1,3,1.8720090134587535
0,1,3,16.569104591265003
0,1,3,18.0
0,1,3,40.0
0,1,3,335829.90024124034
0,1,3,839.2881206597224
0,1,3,28.975416314577792
0,1,3,2912.6666666666642
0,1,3,7.281666666666661
0,1,3,109.10412831799408
0,1,3,384.0936883475573
0,1,3,4241235.214610789
0,1,3,128.837657651067
0,1,3,42199986.3230396
0,1,3,329687.39314874687
0,1,3,1.0025052144891855
0,1,3,10873894781.53497
0,1,3,84399972.6460792
0,1,3,16599.14202901354
0,1,3,198.0
0,1,3,17292.3624032568
0,1,3,0.44704105056666715
0,1,3,248.09092034611646
0,1,3,64.05605372346686
0,1,3,-1.4018792391256498
0,1,3,0.9735959116009628
0,1,3,59.0
0,1,4,4776.8311858076695
0,1,4,0.9616283179941205
0,1,4,11.942077964519173
0,1,4,4392.987685074043
0,1,4,3934.5474804588553
0,1,4,0.9616283179941205
0,1,4,19.23256635988241
0,1,4,31.80294763583281
0,1,4,1.7996502069559714
0,1,4,17.063877810331544
0,1,4,24.0
0,1,4,36.0
0,1,4,404570.9913310094
0,1,4,1010.5027493055561
0,1,4,31.80294763583281
0,1,4,2988.833333333334
0,1,4,7.472083333333335
0,1,4,168.60412831799408
0,1,4,418.95076822058246
0,1,4,2878245.0284856274
0,1,4,128.95444940567612
0,1,4,51251669.23606262
0,1,4,400403.66590673925
0,1,4,1.0006344878797704
0,1,4,13218261574.91657
0,1,4,102503338.47212525
0,1,4,16629.250021521082
0,1,4,225.0
0,1,4,20580.69319140209
0,1,4,0.4753686134820592
0,1,4,270.424900518733
0,1,4,64.01123024507932
0,1,4,-1.5682079260841761
0,1,4,1.1790589823085402
0,1,4,75.0
0,1,5,3675.4177404294965
0,1,5,-0.7050383486725476
0,1,5,9.188544351073741
0,1,5,3319.11521608643
0,1,5,2922.339338268639
0,1,5,-0.7050383486725476
0,1,5,14.10076697345095
0,1,5,22.49634465470109
0,1,5,1.724590731504963
0,1,5,12.728537392819383
0,1,5,19.0
0,1,5,32.0
0,1,5,202434.20912923932
0,1,5,505.58844374999916
0,1,5,22.49634465470109
0,1,5,2477.1666666666674
0,1,5,6.192916666666669
0,1,5,123.10412831799408
0,1,5,302.96802914794836
0,1,5,1889433.5161355133
0,1,5,128.9638838449991
0,1,5,25451002.95426096
0,1,5,198835.96058016375
0,1,5,1.000513996014245
0,1,5,6564520377.464078
0,1,5,50902005.90852192
0,1,5,16631.683336386417
0,1,5,256.0
0,1,5,9705.772526849642
0,1,5,0.44435277419838787
0,1,5,195.70275695120185
0,1,5,64.00973588137411
0,1,5,-1.406180583463626
0,1,5,0.9859997305648315
0,1,5,69.0
0,1,6,4481.041283179942
0,1,6,-0.20587168200588038
0,1,6,11.202603207949856
0,1,6,3990.759860610914
0,1,6,3378.3513849539695
0,1,6,-0.20587168200588038
0,1,6,4.117433640117608
0,1,6,27.865989422282944
0,1,6,1.808458097170023
0,1,6,15.390853663679515
0,1,6,21.0
0,1,6,31.0
0,1,6,310605.34659311397
0,1,6,776.4709833333345
0,1,6,27.865989422282944
0,1,6,2704.4999999999995
0,1,6,6.761249999999999
0,1,6,126.43746165132745
0,1,6,368.3552850417641
0,1,6,3505983.1565668583
0,1,6,128.57196758518438
0,1,6,38968304.567315064
0,1,6,304439.87943214894
0,1,6,1.0066927577399065
0,1,6,10020463183.35685
0,1,6,77936609.13463013
0,1,6,16530.750848725704
0,1,6,233.0
0,1,6,15748.4512803787
0,1,6,0.4228854404906533
0,1,6,238.84934306238108
0,1,6,64.09760884640747
0,1,6,-1.4237008200339558
0,1,6,1.119844306284651
0,1,6,56.0
0,1,7,4462.914365746315
0,1,7,0.8466283179941212
0,1,7,11.157285914365787
0,1,7,3988.0921201814162
0,1,7,3288.23074856609
0,1,7,0.8466283179941212
0,1,7,16.932566359882422
0,1,7,27.228965907098665
0,1,7,1.8196980703471375
0,1,7,14.955391759832237
0,1,7,20.0
0,1,7,40.0
0,1,7,296566.63374797656
0,1,7,740.6998048611111
0,1,7,27.228965907098665
0,1,7,2855.333333333335
0,1,7,7.138333333333337
0,1,7,136.60412831799408
0,1,7,341.96617003994965
0,1,7,3851246.4067979185
0,1,7,128.89668173946126
0,1,7,37084066.402004525
0,1,7,289719.26876566035
0,1,7,1.0015525570934356
0,1,7,9560026209.248451
0,1,7,74168132.80400905
0,1,7,16614.354563443965
0,1,7,209.0
0,1,7,15723.915400097132
0,1,7,0.44949679137954424
0,1,7,222.85012631671134
0,1,7,64.00343573973421
0,1,7,-1.3897893044871692
0,1,7,0.6559793999471671
0,1,7,62.0
0,1,8,4152.959023609445
0,1,8,-0.5721216820058781
0,1,8,10.382397559023612
0,1,8,3743.1991629985237
0,1,8,3195.039918233933
0,1,8,-0.5721216820058781
0,1,8,11.442433640117564
0,1,8,26.657906284812658
0,1,8,1.7388646845144808
0,1,8,14.76217997695318
0,1,8,18.0
0,1,8,36.0
0,1,8,284257.5869959417
0,1,8,710.3166442708332
0,1,8,26.657906284812658
0,1,8,2624.5000000000023
0,1,8,6.561250000000006
0,1,8,102.60412831799408
0,1,8,348.66235090690327
0,1,8,2380804.500150662
0,1,8,128.08405293584224
0,1,8,35771799.91318672
0,1,8,279467.18682177126
0,1,8,1.0144132277781304
0,1,8,9163594227.38193
0,1,8,71543599.82637344
0,1,8,16405.524616471637
0,1,8,229.0
0,1,8,13804.516968206543
0,1,8,0.45647541551294196
0,1,8,225.4924916281478
0,1,8,64.0438950298897
0,1,8,-1.5613050573531877
0,1,8,1.1659756442672649
0,1,8,45.0
0,1,9,4009.5397492330426
0,1,9,0.831628317994121
0,1,9,10.023849373082607
0,1,9,3603.3427337601775
0,1,9,3043.2985875683535
0,1,9,0.831628317994121
0,1,9,16.632566359882418
0,1,9,23.262597888464665
0,1,9,1.7681332259578943
0,1,9,15.192691599200046
0,1,9,20.0
0,1,9,33.0
0,1,9,216459.38420816028
0,1,9,540.4568548611112
0,1,9,23.262597888464665
0,1,9,2801.666666666667
0,1,9,7.004166666666667
0,1,9,131.43746165132745
0,1,9,319.2574356154472
0,1,9,1548908.500544128
0,1,9,128.9954212864955
0,1,9,27072953.320896517
0,1,9,211507.44781950404
0,1,9,1.0000646454335547
0,1,9,6984574038.197348
0,1,9,54145906.641793035
0,1,9,16639.81871288046
0,1,9,221.0
0,1,9,11238.718452924988
0,1,9,0.5815441799757727
0,1,9,206.0349543607449
0,1,9,63.99582878823092
0,1,9,-1.5840298343531687
0,1,9,1.423290143292115
0,1,9,59.0
0,1,10,3649.292663732155
0,1,10,-0.5408716820058812
0,1,10,9.123231659330386
0,1,10,3209.449316393216
0,1,10,2633.757276910735
0,1,10,-0.5408716820058812
0,1,10,10.817433640117626
0,1,10,19.060087456332987
0,1,10,1.837013128672008
0,1,10,10.14277771863429
0,1,10,18.0
0,1,10,37.0
0,1,10,145314.77353722483
0,1,10,362.9943916666666
0,1,10,19.060087456332987
0,1,10,2344.333333333334
0,1,10,5.860833333333335
0,1,10,84.93746165132745
0,1,10,242.35947360743987
0,1,10,1658531.0742641457
0,1,10,127.84370962398877
0,1,10,17836714.90631288
0,1,10,139349.33520556937
0,1,10,1.0182210705684733
0,1,10,4560623602.2570715
0,1,10,35673429.81262576
0,1,10,16344.01409042276
0,1,10,200.0
0,1,10,7457.07238900325
0,1,10,0.40823295052044856
0,1,10,157.8370608448315
0,1,10,64.01537330955904
0,1,10,-1.1790154243615012
0,1,10,0.5673757799527636
0,1,10,60.0
0,1,11,4262.8330265439545
0,1,11,0.4449616513274502
0,1,11,10.657082566359886
0,1,11,3798.5523709483787
0,1,11,3143.852954381732
0,1,11,0.4449616513274502
0,1,11,8.899233026549004
0,1,11,25.14668392450443
0,1,11,1.8761613882179868
0,1,11,17.32373738298142
0,1,11,21.0
0,1,11,39.0
0,1,11,252942.2849595718
0,1,11,632.1577215277778
0,1,11,25.14668392450443
0,1,11,3016.4999999999986
0,1,11,7.541249999999997
0,1,11,137.43746165132745
0,1,11,349.5129696269793
0,1,11,2195878.8252682583
0,1,11,128.87782760571574
0,1,11,31575091.299074456
0,1,11,246680.4007740192
0,1,11,1.001731502017246
0,1,11,8138658346.153705
0,1,11,63150182.59814891
0,1,11,16609.494448368587
0,1,11,204.0
0,1,11,12998.658246964873
0,1,11,0.5908771853477542
0,1,11,225.04583361972715
0,1,11,64.06185025494884
0,1,11,-1.3067568498542632
0,1,11,0.9225283839062153
0,1,11,68.0
0,1,12,4526.999693210621
0,1,12,0.05621165132745503
0,1,12,11.317499233026554
0,1,12,4069.364755902361
0,1,12,3406.7096271841874
0,1,12,0.05621165132745503
0,1,12,1.1242330265491007
0,1,12,25.351782533614664
0,1,12,1.938675584873088
0,1,12,16.276158176274706
0,1,12,18.0
0,1,12,41.0
0,1,12,257085.1510526758
0,1,12,642.7097178819444
0,1,12,25.351782533614664
0,1,12,2893.8333333333344
0,1,12,7.234583333333336
0,1,12,156.60412831799408
0,1,12,336.8376849769741
0,1,12,2830752.527431718
0,1,12,128.37990236081248
0,1,12,31964326.35224237
0,1,12,249721.2996268935
0,1,12,1.0096698335279937
0,1,12,8207154192.260041
0,1,12,63928652.70448474
0,1,12,16481.399330171746
0,1,12,244.0
0,1,12,13948.099185917123
0,1,12,0.4743067355246501
0,1,12,218.2382016861982
0,1,12,64.11698624322558
0,1,12,-1.7406792853975168
0,1,12,1.7721577149388588
0,1,12,48.0
0,1,13,3832.5828731492666
0,1,13,0.01662831799411947
0,1,13,9.581457182873166
0,1,13,3346.323779511799
0,1,13,2621.5515664932345
0,1,13,0.01662831799411947
0,1,13,0.3325663598823894
0,1,13,20.48285484187157
0,1,13,1.7999319808764018
0,1,13,14.079314454779706
0,1,13,14.0
0,1,13,38.0
0,1,13,167818.93698927265
0,1,13,419.5470659722222
0,1,13,20.48285484187157
0,1,13,2660.6666666666674
0,1,13,6.651666666666669
0,1,13,102.43746165132745
0,1,13,291.8514722629406
0,1,13,1541249.3304241234
0,1,13,127.95001620758148
0,1,13,20540760.36563439
0,1,13,160474.69035651867
0,1,13,1.0161827663501024
0,1,13,5256381243.397935
0,1,13,41081520.73126878
0,1,13,16371.206647520365
0,1,13,210.0
0,1,13,9046.015667876583
0,1,13,0.5678577967254307
0,1,13,188.0106362656641
0,1,13,64.1224088879809
0,1,13,-1.2984524837833153
0,1,13,0.8429870805433078
0,1,13,43.0
0,1,14,4643.91682006136
0,1,14,-1.0850383486725472
0,1,14,11.6097920501534
0,1,14,4093.7188842203554
0,1,14,3734.5782120848144
0,1,14,-1.0850383486725472
0,1,14,21.700766973450946
0,1,14,24.774751860429753
0,1,14,1.9844272569621404
0,1,14,17.184489211245285
0,1,14,20.0
0,1,14,39.0
0,1,14,245515.33189834698
0,1,14,612.611021527778
0,1,14,24.774751860429753
0,1,14,3001.5000000000027
0,1,14,7.503750000000007
0,1,14,105.77079498466082
0,1,14,328.8582266323897
0,1,14,2373082.268374838
0,1,14,126.75300931634258
0,1,14,30797422.652806997
0,1,14,240604.86447505467
0,1,14,1.0356758089423224
0,1,14,7807332000.861171
0,1,14,61594845.305613995
0,1,14,16066.32537074883
0,1,14,217.0
0,1,14,14633.81433515955
0,1,14,0.5775644963278598
0,1,14,210.80432974367005
0,1,14,63.96021397217088
0,1,14,-1.4425332633932133
0,1,14,0.8647698335402271
0,1,14,37.0
0,1,15,4108.871241830095
0,1,15,1.5074616513274532
0,1,15,10.272178104575238
0,1,15,3708.6330965719762
0,1,15,3189.8837987194916
0,1,15,1.5074616513274532
0,1,15,30.149233026549062
0,1,15,21.422684927877533
0,1,15,1.7824657219184818
0,1,15,14.558682471655809
0,1,15,24.0
0,1,15,40.0
0,1,15,183572.5718076445
0,1,15,456.65898888888887
0,1,15,21.422684927877533
0,1,15,2724.1666666666683
0,1,15,6.810416666666671
0,1,15,116.77079498466082
0,1,15,287.3736735572077
0,1,15,1661285.177056621
0,1,15,128.81734814561466
0,1,15,22693315.723777704
0,1,15,177291.5290920133
0,1,15,1.002853141375694
0,1,15,5846585504.336448
0,1,15,45386631.44755541
0,1,15,16593.909183268494
0,1,15,194.0
0,1,15,10204.527817699785
0,1,15,0.5265104836270496
0,1,15,186.24097270536515
0,1,15,63.8657250676218
0,1,15,-1.5611947529934151
0,1,15,1.220522649826117
0,1,15,43.0
0,1,16,3093.2926637321534
0,1,16,-0.8083716820058802
0,1,16,7.733231659330384
0,1,16,2723.2617013471995
0,1,16,2279.715351207124
0,1,16,-0.8083716820058802
0,1,16,16.1674336401176
0,1,16,16.629582999837705
0,1,16,1.7180567325980998
0,1,16,11.335268152697907
0,1,16,15.0
0,1,16,34.0
0,1,16,110617.21229939647
0,1,16,275.88956597222244
0,1,16,16.629582999837705
0,1,16,2279.3333333333317
0,1,16,5.69833333333333
0,1,16,90.43746165132745
0,1,16,228.92771251597017
0,1,16,1620125.2831073822
0,1,16,127.53618310005477
0,1,16,13662560.154563295
0,1,16,106738.75120752574
0,1,16,1.0230003975949622
0,1,16,3484941546.975794
0,1,16,27325120.30912659
0,1,16,16265.477999730696
0,1,16,203.0
0,1,16,5670.825286510323
0,1,16,0.5103769336350575
0,1,16,149.11722545390393
0,1,16,63.9514315941339
0,1,16,-1.239210119087128
0,1,16,0.9656636184929763
0,1,16,50.0
0,1,17,4105.708256635987
0,1,17,0.054544984660784765
0,1,17,10.264270641589967
0,1,17,3685.5107809790575
0,1,17,3110.6623175936834
0,1,17,0.054544984660784765
0,1,17,1.0908996932156954
0,1,17,23.708036670283718
0,1,17,1.8321195593962594
0,1,17,16.103557414543786
0,1,17,20.0
0,1,17,39.0
0,1,17,224828.40110380703
0,1,17,562.0680276041669
0,1,17,23.708036670283718
0,1,17,2829.333333333331
0,1,17,7.073333333333328
0,1,17,117.77079498466082
0,1,17,313.1386814780959
0,1,17,2338138.842500827
0,1,17,128.7497614541946
0,1,17,28107262.810025487
0,1,17,219587.99070332412
0,1,17,1.0039049674898102
0,1,17,7237606763.842274
0,1,17,56214525.620050974
0,1,17,16576.501074512016
0,1,17,201.0
0,1,17,11652.302403015909
0,1,17,0.5603726355206833
0,1,17,202.22983005072768
0,1,17,64.11659675847467
0,1,17,-1.6395709579606186
0,1,17,1.421239301813629
0,1,17,76.0
0,1,18,3472.249846605313
0,1,18,0.06871165132745148
0,1,18,8.680624616513283
0,1,18,3046.3652160864317
0,1,18,2488.675986661309
0,1,18,0.06871165132745148
0,1,18,1.3742330265490297
0,1,18,18.019300848308777
0,1,18,1.7929580614765073
0,1,18,10.692491060523054
0,1,18,16.0
0,1,18,34.0
0,1,18,129878.08122474457
0,1,18,324.6904817708335
0,1,18,18.019300848308777
0,1,18,2312.833333333333
0,1,18,5.782083333333333
0,1,18,103.27079498466082
0,1,18,232.8279381118011
0,1,18,1640497.1114237956
0,1,18,128.52872991931076
0,1,18,15915980.24971248
0,1,18,124343.59570087875
0,1,18,1.00726073631247
0,1,18,4091321453.832759
0,1,18,31831960.49942496
0,1,18,16519.63441467113
0,1,18,202.0
0,1,18,6983.847197157358
0,1,18,0.4695417545458953
0,1,18,150.32868499358418
0,1,18,64.11058955954975
0,1,18,-1.3298179441358713
0,1,18,0.7444155662312298
0,1,18,66.0
0,1,19,4246.8749233026565
0,1,19,0.03412831799411805
0,1,19,10.617187308256641
0,1,19,3898.3442677070825
0,1,19,3423.6438431372394
0,1,19,0.03412831799411805
0,1,19,0.682566359882361
0,1,19,25.952727072889033
0,1,19,1.7214411605719615
0,1,19,16.122341460839177
0,1,19,21.0
0,1,19,34.0
0,1,19,269417.61700794694
0,1,19,673.5428777777785
0,1,19,25.952727072889033
0,1,19,2743.833333333331
0,1,19,6.859583333333328
0,1,19,123.27079498466082
0,1,19,353.29161586405513
0,1,19,3568231.8108686525
0,1,19,128.90314201453066
0,1,19,33951383.55862715
0,1,19,265245.1840517746
0,1,19,1.0013834562006578
0,1,19,8752880032.895033
0,1,19,67902767.1172543
0,1,19,16616.02002121826
0,1,19,195.0
0,1,19,14357.07140584598
0,1,19,0.5045042983365109
0,1,19,227.68173246288129
0,1,19,64.12043859659433
0,1,19,-1.5034531620437215
0,1,19,1.2073922403183548
0,1,19,47.0
0,1,20,3753.5841003067844
0,1,20,-0.3150383486725457
0,1,20,9.383960250766961
0,1,20,3350.05329131652
0,1,20,2809.3145360810695
0,1,20,-0.3150383486725457
0,1,20,6.300766973450914
0,1,20,20.93441660201424
0,1,20,1.7764569016735168
0,1,20,12.599697100672024
0,1,20,21.0
0,1,20,30.0
0,1,20,175299.91938667579
0,1,20,438.1505493055554
0,1,20,20.93441660201424
0,1,20,2379.833333333333
0,1,20,5.949583333333333
0,1,20,129.93746165132745
0,1,20,272.2938045149619
0,1,20,1428503.87885954
0,1,20,128.34183308069652
0,1,20,21802279.315187532
0,1,20,170330.3071499026
0,1,20,1.0103366382635508
0,1,20,5596288985.297042
0,1,20,43604558.630375065
0,1,20,16471.626118513366
0,1,20,197.0
0,1,20,9400.887582658363
0,1,20,0.5041671375742769
0,1,20,175.01625532507342
0,1,20,64.06753023313631
0,1,20,-1.5843854234122068
0,1,20,1.5150960380009846
0,1,20,47.0
0,1,21,3364.7079498466082
0,1,21,0.18579498466078748
0,1,21,8.411769874616521
0,1,21,3043.65649926637
0,1,21,2660.805284513789
0,1,21,0.18579498466078748
0,1,21,3.715899693215749
0,1,21,20.66465219479583
0,1,21,1.6488232018046178
0,1,21,11.999501057110866
0,1,21,21.0
0,1,21,31.0
0,1,21,170811.14013275204
0,1,21,426.9933305555555
0,1,21,20.66465219479583
0,1,21,2355.6666666666642
0,1,21,5.889166666666661
0,1,21,105.43746165132745
0,1,21,267.7612584860604
0,1,21,2375963.8107513417
0,1,21,128.99835002209193
0,1,21,21438794.008531593
0,1,21,167490.57819165307
0,1,21,1.0000114961188677
0,1,21,5531138107.128172
0,1,21,42877588.017063186
0,1,21,16640.574308422143
0,1,21,204.0
0,1,21,8799.23752244657
0,1,21,0.44662504491948146
0,1,21,173.32245332735906
0,1,21,64.09087472398318
0,1,21,-1.4031666297453365
0,1,21,0.8563242731380911
0,1,21,49.0
0,1,22,3947.625690276107
0,1,22,-0.15378834867254595
0,1,22,9.869064225690268
0,1,22,3566.8032913165152
0,1,22,3082.597660797623
0,1,22,-0.15378834867254595
0,1,22,3.075766973450919
0,1,22,22.841777133730655
0,1,22,1.7633742794554426
0,1,22,16.270874816897713
0,1,22,24.0
0,1,22,36.0
0,1,22,208698.7130508083
0,1,22,521.7231317708333
0,1,22,22.841777133730655
0,1,22,2778.8333333333353
0,1,22,6.947083333333339
0,1,22,92.77079498466082
0,1,22,307.9513205192692
0,1,22,1677227.9480901344
0,1,22,128.79631639500556
0,1,22,26124210.830691557
0,1,22,204095.3971147778
0,1,22,1.0031530686229801
0,1,22,6729404247.439161
0,1,22,52248421.661383115
0,1,22,16588.491116922378
0,1,22,218.0
0,1,22,11229.071553043495
0,1,22,0.6224077739423173
0,1,22,198.21237107664928
0,1,22,64.10036797869685
0,1,22,-1.669694021032293
0,1,22,1.6810450462016
0,1,22,38.0
0,1,23,4607.9984660531
0,1,23,0.5153783179941204
0,1,23,11.519996165132751
0,1,23,4146.614295718288
0,1,23,3479.088925970368
0,1,23,0.5153783179941204
0,1,23,10.307566359882406
0,1,23,24.296368085313638
0,1,23,1.9346140895397559
0,1,23,16.118042181510987
0,1,23,22.0
0,1,23,44.0
0,1,23,236125.40085481884
0,1,23,590.0478873263887
0,1,23,24.296368085313638
0,1,23,2901.3333333333308
0,1,23,7.253333333333327
0,1,23,122.93746165132745
0,1,23,338.5795963419371
0,1,23,1774004.327233183
0,1,23,128.67848572866677
0,1,23,29353802.880987205
0,1,23,229326.58500771254
0,1,23,1.0050302239459896
0,1,23,7554405810.20642
0,1,23,58707605.76197441
0,1,23,16558.1526894227
0,1,23,207.0
0,1,23,12798.663527918723
0,1,23,0.4987560542359424
0,1,23,219.1144151951142
0,1,23,64.04983022659691
0,1,23,-1.3948807409139024
0,1,23,1.206068657483852
0,1,23,62.0
0,1,24,3738.70672268909
0,1,24,0.8374616513274511
0,1,24,9.346766806722725
0,1,24,3266.884783913572
0,1,24,2574.6641867413446
0,1,24,0.8374616513274511
0,1,24,16.74923302654902
0,1,24,19.966519415586674
0,1,24,1.800326323134753
0,1,24,14.128288474792543
0,1,24,18.0
0,1,24,38.0
0,1,24,159464.75902919983
0,1,24,397.96055555555483
0,1,24,19.966519415586674
0,1,24,2574.1666666666647
0,1,24,6.4354166666666615
0,1,24,89.77079498466082
0,1,24,254.41895395479926
0,1,24,2667227.445433178
0,1,24,128.43092918012152
0,1,24,19479092.974553525
0,1,24,152180.41386369942
0,1,24,1.0088968730798895
0,1,24,5003436020.615773
0,1,24,38958185.94910705
0,1,24,16494.50357006939
0,1,24,180.0
0,1,24,8618.143595836156
0,1,24,0.47820912065429205
0,1,24,165.01762112737552
0,1,24,63.9625273495272
0,1,24,-1.062314601063478
0,1,24,0.7977420721639246
0,1,24,33.0
0,1,25,4070.6278378017687
0,1,25,-2.14503834867255
0,1,25,10.176569594504421
0,1,25,3731.117823796164
0,1,25,3370.4003197278553
0,1,25,-2.14503834867255
0,1,25,42.900766973451
0,1,25,23.972016554969244
0,1,25,1.7912075049111582
0,1,25,11.479322880778716
0,1,25,17.0
0,1,25,36.0
0,1,25,229863.0310846878
0,1,25,570.0563881944439
0,1,25,23.972016554969244
0,1,25,2386.9999999999977
0,1,25,5.967499999999994
0,1,25,120.27079498466082
0,1,25,302.18427329634517
0,1,25,2232182.0248823264
0,1,25,127.36536779590708
0,1,25,28913000.436347097
0,1,25,225882.8159089617
0,1,25,1.0257437765765562
0,1,25,7365029869.31714
0,1,25,57826000.872694194
0,1,25,16221.936913786683
0,1,25,220.0
0,1,25,11848.807563624974
0,1,25,0.398446119238749
0,1,25,194.89942854287315
0,1,25,63.7723674707997
0,1,25,-1.3801908285616717
0,1,25,0.6837684548128385
0,1,25,46.0
0,1,26,3823.5406696011814
0,1,26,0.45787831799411993
0,1,26,9.558851674002954
0,1,26,3473.5101674002954
0,1,26,3038.992362278228
0,1,26,0.45787831799411993
0,1,26,9.157566359882399
0,1,26,23.654034178888654
0,1,26,1.6871585647780962
0,1,26,12.469017576844724
0,1,26,20.0
0,1,26,35.0
0,1,26,223805.33317441307
0,1,26,559.303680381945
0,1,26,23.654034178888654
0,1,26,2449.8333333333344
0,1,26,6.124583333333336
0,1,26,129.60412831799408
0,1,26,300.71584634689964
0,1,26,3513464.5130780847
0,1,26,128.9684384701297
0,1,26,28239578.047373783
0,1,26,220621.70349510768
0,1,26,1.0002740456241028
0,1,26,7284028567.650303
0,1,26,56479156.094747566
0,1,26,16632.858121423633
0,1,26,210.0
0,1,26,11391.571062286544
0,1,26,0.43658665998049884
0,1,26,194.91010019071265
0,1,26,64.04992384456645
0,1,26,-1.3070551484273112
0,1,26,0.6628494183944926
0,1,26,45.0
0,1,27,3661.333026543956
0,1,27,0.24204498466078547
0,1,27,9.15333256635989
0,1,27,3303.2399859943976
0,1,27,2836.1947761771216
0,1,27,0.24204498466078547
0,1,27,4.84089969321571
0,1,27,22.469109555389572
0,1,27,1.730035882400278
0,1,27,13.025901728677683
0,1,27,17.0
0,1,27,46.0
0,1,27,201944.35368483962
0,1,27,504.8022984375
0,1,27,22.469109555389572
0,1,27,2582.500000000002
0,1,27,6.456250000000004
0,1,27,127.93746165132745
0,1,27,298.5758193517246
0,1,27,1980363.430893858
0,1,27,128.88183622124953
0,1,27,25272172.787243042
0,1,27,197438.84990033627
0,1,27,1.0018003748587556
0,1,27,6514248068.241154
0,1,27,50544345.574486084
0,1,27,16610.527707760986
0,1,27,190.0
0,1,27,10645.880200628548
0,1,27,0.45607930744392816
0,1,27,191.8274193168399
0,1,27,64.08478847843027
0,1,27,-1.6646385835539503
0,1,27,1.4728523878839088
0,1,27,52.0
0,1,28,3299.9158996932174
0,1,28,-0.12628834867254754
0,1,28,8.249789749233043
0,1,28,2932.8227057489707
0,1,28,2477.020749499786
0,1,28,-0.12628834867254754
0,1,28,2.5257669734509505
0,1,28,17.839792715414465
0,1,28,1.7244318207590243
0,1,28,11.716613457420623
0,1,28,15.0
0,1,28,35.0
0,1,28,127303.28165158199
0,1,28,318.2422553819448
0,1,28,17.839792715414465
0,1,28,2374.3333333333353
0,1,28,5.935833333333338
0,1,28,103.43746165132745
0,1,28,225.7068520401161
0,1,28,1587306.4311248031
0,1,28,128.67463405911727
0,1,28,15829039.22932211
0,1,28,123664.36897907898
0,1,28,1.0050433985720013
0,1,28,4073591660.6808677
0,1,28,31658078.45864422
0,1,28,16557.161450247742
0,1,28,188.0
0,1,28,7123.976783440631
0,1,28,0.5515743759436184
0,1,28,146.5267324976334
0,1,28,64.09761050988475
0,1,28,-1.3388704121568782
0,1,28,0.8324670812757473
0,1,28,53.0
0,1,29,4385.0403628118
0,1,29,0.47287831799412006
0,1,29,10.9626009070295
0,1,29,4042.0719387755166
0,1,29,3638.788102841132
0,1,29,0.47287831799412006
0,1,29,9.457566359882401
0,1,29,26.57363064533078
0,1,29,1.7020043129299869
0,1,29,14.808315286187975
0,1,29,24.0
0,1,29,36.0
0,1,29,282463.13826978527
0,1,29,705.9342317708329
0,1,29,26.57363064533078
0,1,29,2617.1666666666665
0,1,29,6.542916666666667
0,1,29,153.43746165132745
0,1,29,324.56144847453544
0,1,29,3360638.050373686
0,1,29,128.99774195276677
0,1,29,35739117.68189427
0,1,29,279211.856889799
0,1,29,0.9998715410933726
0,1,29,9220530960.697123
0,1,29,71478235.36378855
0,1,29,16640.417428912606
0,1,29,225.0
0,1,29,14946.01428067327
0,1,29,0.4642281138407099
0,1,29,208.608370754845
0,1,29,64.05256431868735
0,1,29,-1.531099862003117
0,1,29,1.0695638843697928
0,1,29,50.0
0,1,30,4444.87553688142
0,1,30,-0.08170501533921254
0,1,30,11.11218884220355
0,1,30,4059.30298452714
0,1,30,3573.9486065092515
0,1,30,-0.08170501533921254
0,1,30,1.6341003067842508
0,1,30,27.467031804077365
0,1,30,1.7928792771979418
0,1,30,16.301966368844866
0,1,30,20.0
0,1,30,33.0
0,1,30,301775.134450479
0,1,30,754.4311604166662
0,1,30,27.467031804077365
0,1,30,2725.333333333334
0,1,30,6.813333333333335
0,1,30,172.43746165132745
0,1,30,362.4356310156561
0,1,30,3216846.7386854375
0,1,30,128.86414678189087
0,1,30,38044012.56756406
0,1,30,297218.84818409424
0,1,30,1.0021180773186698
0,1,30,9805018439.357353
0,1,30,76088025.13512813
0,1,30,16605.968325824713
0,1,30,211.0
0,1,30,15340.218930614898
0,1,30,0.4805437844462302
0,1,30,232.44929760566652
0,1,30,64.11397473255532
0,1,30,-1.7462003430544477
0,1,30,1.645704211945872
0,1,30,58.0
0,1,31,3787.459023609442
0,1,31,-0.38003834867254765
0,1,31,9.468647559023605
0,1,31,3427.4282146191726
0,1,31,2997.429370814971
0,1,31,-0.38003834867254765
0,1,31,7.600766973450953
0,1,31,22.0146103154452
0,1,31,1.755055006608957
0,1,31,13.460910641120087
0,1,31,16.0
0,1,31,34.0
0,1,31,193857.22693636245
0,1,31,484.498638194444
0,1,31,22.0146103154452
0,1,31,2419.1666666666683
0,1,31,6.047916666666671
0,1,31,173.43746165132745
0,1,31,303.1434473373247
0,1,31,2283234.3173871473
0,1,31,128.68187232085413
0,1,31,24201638.071667895
0,1,31,189075.29743490543
0,1,31,1.0049755618951337
0,1,31,6228624200.587781
0,1,31,48403276.14333579
0,1,31,16559.024264000604
0,1,31,215.0
0,1,31,10205.719612322777
0,1,31,0.43493714719207294
0,1,31,195.56418696989803
0,1,31,64.06293757626598
0,1,31,-1.5826879986805524
0,1,31,1.3784778492529732
0,1,31,53.0
0,1,32,3724.99815926372
0,1,32,0.5566283179941209
0,1,32,9.3124953981593
0,1,32,3321.4887588368715
0,1,32,2769.1605838335195
0,1,32,0.5566283179941209
0,1,32,11.132566359882418
0,1,32,20.184130068253385
0,1,32,1.761710100673231
0,1,32,12.690324935893397
0,1,32,18.0
0,1,32,36.0
0,1,32,162959.64264486814
0,1,32,407.08927152777795
0,1,32,20.184130068253385
0,1,32,2487.500000000001
0,1,32,6.218750000000003
0,1,32,129.60412831799408
0,1,32,277.84715296616616
0,1,32,2121026.876480786
0,1,32,128.70749223693448
0,1,32,20221706.095606387
0,1,32,157982.0788719249
0,1,32,1.0045748910597396
0,1,32,5205370160.635659
0,1,32,40443412.19121277
0,1,32,16565.618557920552
0,1,32,199.0
0,1,32,8555.794797839852
0,1,32,0.44981780236455626
0,1,32,179.88355601242603
0,1,32,64.02603063840701
0,1,32,-1.5897516206636872
0,1,32,1.5301184344810232
0,1,32,46.0
0,1,33,3174.540669601183
0,1,33,0.21371165132745462
0,1,33,7.936351674002958
0,1,33,2826.3843237295027
0,1,33,2414.5991143123897
0,1,33,0.21371165132745462
0,1,33,4.2742330265490915
0,1,33,15.987160134400634
0,1,33,1.7243306969790115
0,1,33,11.122388804599973
0,1,33,15.0
0,1,33,38.0
0,1,33,102235.71566518757
0,1,33,255.54361649305514
0,1,33,15.987160134400634
0,1,33,2367.1666666666674
0,1,33,5.9179166666666685
0,1,33,67.27079498466082
0,1,33,208.67400973097506
0,1,33,1173242.8342493766
0,1,33,128.2606678103814
0,1,33,12478654.394001305
0,1,33,97489.4874531352
0,1,33,1.011527293308001
0,1,33,3201041091.899115
0,1,33,24957308.78800261
0,1,33,16450.798907165004
0,1,33,202.0
0,1,33,6037.902697107303
0,1,33,0.530041115790845
0,1,33,136.160841638085
0,1,33,64.07492063480974
0,1,33,-1.3842102923146202
0,1,33,1.0474796102549115
0,1,33,46.0
0,1,34,3840.790516206493
0,1,34,0.6416283179941199
0,1,34,9.601976290516232
0,1,34,3465.384477124192
0,1,34,2979.2650548219267
0,1,34,0.6416283179941199
0,1,34,12.832566359882398
0,1,34,21.6570716596375
0,1,34,1.8069487449092643
0,1,34,12.14185910030193
0,1,34,16.0
0,1,34,27.0
0,1,34,187611.5011482695
0,1,34,468.61706597222263
0,1,34,21.6570716596375
0,1,34,2337.5000000000023
0,1,34,5.843750000000006
0,1,34,126.27079498466082
0,1,34,292.56760305532106
0,1,34,1850999.650004465
0,1,34,128.75131937170562
0,1,34,23266815.3962155
0,1,34,181771.99528293358
0,1,34,1.0038885914439146
0,1,34,5991266359.681318
0,1,34,46533630.792431
0,1,34,16576.90223995494
0,1,34,222.0
0,1,34,9703.148605084436
0,1,34,0.4266706665089094
0,1,34,190.8422790887539
0,1,34,64.0174472973774
0,1,34,-1.28965547790115
0,1,34,0.7532183824851919
0,1,34,46.0
0,1,35,4190.625076697352
0,1,35,-0.3429550153392158
0,1,35,10.47656269174338
0,1,35,3746.302370948378
0,1,35,3173.760888488706
0,1,35,-0.3429550153392158
0,1,35,6.859100306784316
0,1,35,22.441241762830863
0,1,35,1.8192527180384066
0,1,35,11.484443366219942
0,1,35,18.0
0,1,35,31.0
0,1,35,201443.73274312963
0,1,35,503.4917137152787
0,1,35,22.441241762830863
0,1,35,2198.166666666665
0,1,35,5.495416666666663
0,1,35,106.27079498466082
0,1,35,282.70143129468795
0,1,35,1805223.7889991752
0,1,35,127.78689463220108
0,1,35,25082011.213493526
0,1,35,195953.21260541817
0,1,35,1.0189582428712245
0,1,35,6410304648.204766
0,1,35,50164022.42698705
0,1,35,16329.490439741261
0,1,35,227.0
0,1,35,11055.990257590269
0,1,35,0.4135860368530586
0,1,35,181.69200258307413
0,1,35,64.06472441404104
0,1,35,-1.4847768351172141
0,1,35,1.022665861231764
0,1,35,38.0
0,1,36,3715.8721621982368
0,1,36,0.9053783179941206
0,1,36,9.289680405495591
0,1,36,3319.237531679354
0,1,36,2755.4614072295617
0,1,36,0.9053783179941206
0,1,36,18.107566359882412
0,1,36,18.748474012053304
0,1,36,1.8326318379545148
0,1,36,12.7208285600306
0,1,36,15.0
0,1,36,34.0
0,1,36,140602.11111225522
0,1,36,350.6855678819443
0,1,36,18.748474012053304
0,1,36,2470.833333333333
0,1,36,6.177083333333333
0,1,36,82.10412831799408
0,1,36,249.33363086100763
0,1,36,1201584.790551716
0,1,36,128.1585732219697
0,1,36,16743109.4948683
0,1,36,130805.5429286586
0,1,36,1.0130653744448146
0,1,36,4291546048.3230705
0,1,36,33486218.9897366
0,1,36,16424.61989029097
0,1,36,221.0
0,1,36,8189.20656422291
0,1,36,0.46880556728459183
0,1,36,161.58721152660354
0,1,36,63.94559671939058
0,1,36,-1.374527382651568
0,1,36,1.0300610357362647
0,1,36,44.0
0,1,37,4257.335174069615
0,1,37,-1.5017050153392137
0,1,37,10.643337935174038
0,1,37,3837.825313458702
0,1,37,3319.529517273542
0,1,37,-1.5017050153392137
0,1,37,30.034100306784275
0,1,37,27.537520374386684
0,1,37,1.8193092166785723
0,1,37,14.9965325984021
0,1,37,15.0
0,1,37,27.0
0,1,37,303326.0113479047
0,1,37,756.0599104166675
0,1,37,27.537520374386684
0,1,37,2646.999999999999
0,1,37,6.617499999999998
0,1,37,202.77079498466082
0,1,37,355.192222577398
0,1,37,3059856.806575642
0,1,37,127.442576110675
0,1,37,38241641.470431834
0,1,37,298762.8239877487
0,1,37,1.024621905338924
0,1,37,9747226607.38531
0,1,37,76483282.94086367
0,1,37,16241.610205725192
0,1,37,215.0
0,1,37,15936.804980222276
0,1,37,0.3835179727268781
0,1,37,229.25599829136124
0,1,37,63.91522350189014
0,1,37,-1.9100728079541394
0,1,37,1.9405290721109942
0,1,37,59.0
0,1,38,4440.625690276113
0,1,38,-0.48212168200588096
0,1,38,11.101564225690284
0,1,38,3822.0736261171132
0,1,38,3258.5598261971218
0,1,38,-0.48212168200588096
0,1,38,9.642433640117618
0,1,38,22.3459184572531
0,1,38,2.0650327304353797
0,1,38,12.158830632520564
0,1,38,16.0
0,1,38,32.0
0,1,38,199736.02867928185
0,1,38,499.10763038194403
0,1,38,22.3459184572531
0,1,38,2358.166666666666
0,1,38,5.895416666666665
0,1,38,126.60412831799408
0,1,38,293.2610920662168
0,1,38,2713159.7455173675
0,1,38,126.5687997400536
0,1,38,24616199.715561006
0,1,38,192314.06027782036
0,1,38,1.0384595883436012
0,1,38,6231285704.320011
0,1,38,49232399.43112201
0,1,38,16019.661067637793
0,1,38,209.0
0,1,38,11369.593650902038
0,1,38,0.4229122262041239
0,1,38,189.0611959620639
0,1,38,64.04348228044667
0,1,38,-1.3196738821299683
0,1,38,0.6022170428706167
0,1,38,41.0
0,1,39,4436.034840602958
0,1,39,2.830378317994114
0,1,39,11.090087101507395
0,1,39,4049.900823662836
0,1,39,3557.923050953737
0,1,39,2.830378317994114
0,1,39,56.60756635988229
0,1,39,26.97578501842849
0,1,39,1.8735209235474215
0,1,39,16.168382635507346
0,1,39,18.0
0,1,39,38.0
0,1,39,291077.19094418833
0,1,39,719.6819359374992
0,1,39,26.97578501842849
0,1,39,2671.6666666666647
0,1,39,6.679166666666662
0,1,39,160.93746165132745
0,1,39,363.24505005915296
0,1,39,2202105.293034908
0,1,39,128.4215502512138
0,1,39,36642928.5724372
0,1,39,286272.8794721656
0,1,39,1.00906577660397
0,1,39,9411483386.033762
0,1,39,73285857.1448744
0,1,39,16492.094568925033
0,1,39,182.0
0,1,39,15450.999554706228
0,1,39,0.4726305700091097
0,1,39,235.7288563647277
0,1,39,63.74027116880803
0,1,39,-1.8571714411855393
0,1,39,1.9792473687697465
0,1,39,37.0
0,1,40,3257.087474989971
0,1,40,-1.8325383486725446
0,1,40,8.142718687474927
0,1,40,2897.0971822061906
0,1,40,2527.1591381885764
0,1,40,-1.8325383486725446
0,1,40,36.65076697345089
0,1,40,16.73338785248157
0,1,40,1.733392604621946
0,1,40,11.807082558868455
0,1,40,15.0
0,1,40,32.0
0,1,40,112002.50760863109
0,1,40,276.6480722222224
0,1,40,16.73338785248157
0,1,40,2250.499999999999
0,1,40,5.626249999999998
0,1,40,74.43746165132745
0,1,40,236.21072573828764
0,1,40,1121122.5156220326
0,1,40,125.6344090555998
0,1,40,13977451.972268134
0,1,40,109198.8435333448
0,1,40,1.0539762140893831
0,1,40,3512097837.27787
0,1,40,27954903.94453627
0,1,40,15784.004738749778
0,1,40,176.0
0,1,40,5866.457156254243
0,1,40,0.5915709447185293
0,1,40,151.16201660080114
0,1,40,63.73654918906819
0,1,40,-1.4763133416629806
0,1,40,1.3487281422814341
0,1,40,30.0
0,1,41,3987.8743097238953
0,1,41,0.21246165132745376
0,1,41,9.969685774309738
0,1,41,3598.760474189677
0,1,41,3081.279495264751
0,1,41,0.21246165132745376
0,1,41,4.249233026549075
0,1,41,24.857201917663748
0,1,41,1.7363793533009617
0,1,41,15.403446091373043
0,1,41,16.0
0,1,41,31.0
0,1,41,247152.1948702025
0,1,41,617.8353472222218
0,1,41,24.857201917663748
0,1,41,2565.1666666666665
0,1,41,6.412916666666667
0,1,41,134.60412831799408
0,1,41,332.5076803843807
0,1,41,1821889.0563900322
0,1,41,128.67261105047913
0,1,41,31045167.467781935
0,1,41,242540.37084204637
0,1,41,1.0050460049390395
0,1,41,7989325517.157786
0,1,41,62090334.93556387
0,1,41,16556.640834547885
0,1,41,179.0
0,1,41,13088.677308407754
0,1,41,0.5153031172080981
0,1,41,213.91673543342895
0,1,41,64.09340008941119
0,1,41,-1.5314980810396905
0,1,41,1.1014772492709233
0,1,41,43.0
0,1,42,4149.874616513275
0,1,42,0.1987116513274516
0,1,42,10.374686541283188
0,1,42,3731.4071128451346
0,1,42,3194.027465786286
0,1,42,0.1987116513274516
0,1,42,3.9742330265490327
0,1,42,26.509640254528914
0,1,42,1.8097908651642158
0,1,42,15.576908306953268
0,1,42,18.0
0,1,42,33.0
0,1,42,281104.41056981595
0,1,42,702.7215401041684
0,1,42,26.509640254528914
0,1,42,2680.6666666666692
0,1,42,6.701666666666673
0,1,42,140.27079498466082
0,1,42,361.7697977087649
0,1,42,1843898.37249009
0,1,42,128.80057605535893
0,1,42,35340149.92440902
0,1,42,276094.92128444545
0,1,42,1.0030830464919964
0,1,42,9103663336.293262
0,1,42,70680299.84881803
0,1,42,16589.5883921923
0,1,42,195.0
0,1,42,13657.4527751336
0,1,42,0.48025178967601395
0,1,42,232.1560745253268
0,1,42,64.09780094009406
0,1,42,-1.6416173770092604
0,1,42,1.3955348340415843
0,1,42,50.0
0,1,43,3596.4177404294974
0,1,43,-0.9192050153392138
0,1,43,8.991044351073743
0,1,43,3305.178214619174
0,1,43,3016.8259265039287
0,1,43,-0.9192050153392138
0,1,43,18.384100306784276
0,1,43,20.83874140671118
0,1,43,1.657234349289073
0,1,43,12.859205332887898
0,1,43,16.0
0,1,43,38.0
0,1,43,173701.2573663116
0,1,43,433.40820555555644
0,1,43,20.83874140671118
0,1,43,2304.8333333333317
0,1,43,5.7620833333333294
0,1,43,107.93746165132745
0,1,43,281.5895865607699
0,1,43,2851397.9003866618
0,1,43,128.72592538155877
0,1,43,22009779.013947062
0,1,43,171951.39854646142
0,1,43,1.004235710497953
0,1,43,5666458342.027895
0,1,43,44019558.027894124
0,1,43,16570.363865338637
0,1,43,197.0
0,1,43,9937.193692046607
0,1,43,0.43103248325113286
0,1,43,181.68012309039014
0,1,43,63.963024763354305
0,1,43,-1.3310730713520744
0,1,43,1.0550042549208045
0,1,43,56.0
0,1,44,4824.166666666664
0,1,44,-0.028788348672546534
0,1,44,12.060416666666661
0,1,44,4510.489832599707
0,1,44,4139.969996131775
0,1,44,-0.028788348672546534
0,1,44,0.5757669734509306
0,1,44,35.95803353657748
0,1,44,1.6622910612350452
0,1,44,15.447833090803908
0,1,44,20.0
0,1,44,33.0
0,1,44,517192.0703270522
0,1,44,1292.9793470486115
0,1,44,35.95803353657748
0,1,44,2502.166666666666
0,1,44,6.255416666666665
0,1,44,271.93746165132745
0,1,44,420.7679619300708
0,1,44,4766829.005199907
0,1,44,128.96611384032445
0,1,44,65816812.499270126
0,1,44,514193.84765054786
0,1,44,1.0005295962502132
0,1,44,16976277066.77632
0,1,44,131633624.99854025
0,1,44,16632.258519075527
0,1,44,182.0
0,1,44,24413.793590115456
0,1,44,0.3422562272360111
0,1,44,270.89392094734177
0,1,44,64.12183727006081
0,1,44,-1.888313367414635
0,1,44,1.5520137320256053
0,1,44,41.0
0,1,45,3592.6654395091505
0,1,45,0.4332949846607865
0,1,45,8.981663598772876
0,1,45,3273.5511437908585
0,1,45,2884.26086381219
0,1,45,0.4332949846607865
0,1,45,8.66589969321573
0,1,45,19.377007550885295
0,1,45,1.7128433423957459
0,1,45,13.325765396096852
0,1,45,17.0
0,1,45,38.0
0,1,45,150187.3686508263
0,1,45,375.28067708333356
0,1,45,19.377007550885295
0,1,45,2411.666666666668
0,1,45,6.0291666666666694
0,1,45,113.43746165132745
0,1,45,250.12725391663778
0,1,45,2028759.1324130916
0,1,45,128.82743504585207
0,1,45,18777177.320042826
0,1,45,146696.69781283458
0,1,45,1.0026980450074678
0,1,45,4838031183.084528
0,1,45,37554354.64008565
0,1,45,16596.508020493235
0,1,45,185.0
0,1,45,8656.134228191228
0,1,45,0.5168330752266079
0,1,45,162.30649852107442
0,1,45,64.0396499344595
0,1,45,-1.3178966977291269
0,1,45,1.0504024724448184
0,1,45,45.0
0,1,46,3958.2070294784685
0,1,46,0.5057949846607876
0,1,46,9.895517573696171
0,1,46,3602.676680672274
0,1,46,3068.9388970254613
0,1,46,0.5057949846607876
0,1,46,10.115899693215752
0,1,46,25.972395457268288
0,1,46,1.7038708711915322
0,1,46,16.419241112083757
0,1,46,19.0
0,1,46,32.0
0,1,46,269826.13031549216
0,1,46,674.3094972222227
0,1,46,25.972395457268288
0,1,46,2578.666666666667
0,1,46,6.446666666666667
0,1,46,190.77079498466082
0,1,46,358.5176600276083
0,1,46,2150393.339211212
0,1,46,128.91963427914973
0,1,46,33906990.47012062
0,1,46,264898.3630478174
0,1,46,1.001196707816842
0,1,46,8742553621.829132
0,1,46,67813980.94024125
0,1,46,16620.272102669718
0,1,46,149.0
0,1,46,13803.686585680323
0,1,46,0.532253029755166
0,1,46,231.56060588523118
0,1,46,64.05521062665875
0,1,46,-1.6298787903685166
0,1,46,1.2945935017136498
0,1,46,38.0
0,1,47,3426.2079498466096
0,1,47,-0.4279550153392141
0,1,47,8.565519874616525
0,1,47,3112.301910764307
0,1,47,2755.335962918488
0,1,47,-0.4279550153392141
0,1,47,8.559100306784282
0,1,47,19.796095070588148
0,1,47,1.6784238450228253
0,1,47,11.711068388794331
0,1,47,13.0
0,1,47,31.0
0,1,47,156754.15201750575
0,1,47,391.7022345486111
0,1,47,19.796095070588148
0,1,47,2147.3333333333344
0,1,47,5.368333333333336
0,1,47,130.27079498466082
0,1,47,250.9887180919768
0,1,47,2110858.5966566186
0,1,47,128.12488778571768
0,1,47,19712706.430175763
0,1,47,154005.51898574815
0,1,47,1.0137665544869474
0,1,47,5051376598.638129
0,1,47,39425412.860351525
0,1,47,16415.986870102748
0,1,47,154.0
0,1,47,8347.238165830126
0,1,47,0.3908942589940041
0,1,47,161.1953736925765
0,1,47,64.04012207605541
0,1,47,-1.7097034928487336
0,1,47,1.6966146342028674
0,1,47,24.0
0,1,48,4756.875230092031
0,1,48,0.6270449846607876
0,1,48,11.892188075230079
0,1,48,4132.323319327728
0,1,48,3451.4570173402585
0,1,48,0.6270449846607876
0,1,48,12.540899693215753
0,1,48,24.496305429260577
0,1,48,2.155746569766271
0,1,48,15.628544153881155
0,1,48,19.0
0,1,48,100.0
0,1,48,240027.59187344843
0,1,48,599.6757942708338
0,1,48,24.496305429260577
0,1,48,3700.500000000001
0,1,48,9.251250000000002
0,1,48,169.10412831799408
0,1,48,336.74331842004847
0,1,48,1715923.2700391635
0,1,48,128.97666769249685
0,1,48,29578625.908295944
0,1,48,231083.01490856207
0,1,48,1.0001981369715227
0,1,48,7629905209.149927
0,1,48,59157251.81659189
0,1,48,16634.98080906076
0,1,48,351.0
0,1,48,12234.769133127313
0,1,48,0.5130125027199979
0,1,48,220.90991867335916
0,1,48,64.03423599988325
0,1,48,-1.4791025852147992
0,1,48,1.1246147911458573
0,1,48,134.0
0,1,49,3656.1639055622504
0,1,49,0.9116283179941203
0,1,49,9.140409763905627
0,1,49,3154.2583266640136
0,1,49,2600.757275843675
0,1,49,0.9116283179941203
0,1,49,18.2325663598824
0,1,49,17.95050243636502
0,1,49,1.9112834440601874
0,1,49,10.089811813048035
0,1,49,19.0
0,1,49,39.0
0,1,49,128888.21508717863
0,1,49,321.38947152777763
0,1,49,17.95050243636502
0,1,49,2697.4999999999995
0,1,49,6.743749999999999
0,1,49,86.77079498466082
0,1,49,230.51503126531497
0,1,49,1780435.4211328048
0,1,49,128.9223327085449
0,1,49,15695016.465941213
0,1,49,122617.31614016573
0,1,49,1.0009664591063085
0,1,49,4046876269.3763275
0,1,49,31390032.931882426
0,1,49,16620.967871012745
0,1,49,300.0
0,1,49,6758.091499759173
0,1,49,0.414061731441069
0,1,49,151.87964279632146
0,1,49,63.93279490026292
0,1,49,-1.2273540474359348
0,1,49,0.6936756744781223
0,1,49,113.0
0,1,50,3904.3351740696203
0,1,50,-0.8967050153392117
0,1,50,9.76083793517405
0,1,50,3438.0956482592896
0,1,50,2918.884969054266
0,1,50,-0.8967050153392117
0,1,50,17.934100306784234
0,1,50,20.48831431900961
0,1,50,1.8791156760136283
0,1,50,13.968100767178377
0,1,50,19.0
0,1,50,38.0
0,1,50,167908.40945381366
0,1,50,418.96694375000015
0,1,50,20.48831431900961
0,1,50,2935.1666666666665
0,1,50,7.337916666666667
0,1,50,128.93746165132745
0,1,50,271.90334847037747
0,1,50,1945624.9278933622
0,1,50,127.33454291278706
0,1,50,20826217.893854566
0,1,50,162704.8272957388
0,1,50,1.026354977546435
0,1,50,5303793872.232156
0,1,50,41652435.78770913
0,1,50,16214.08581880841
0,1,50,298.0
0,1,50,9360.259569028833
0,1,50,0.5725712401240262
0,1,50,174.15991800494788
0,1,50,63.960162350563856
0,1,50,-1.4298140670438253
0,1,50,1.1201798397256009
0,1,50,85.0
0,1,51,3961.5425103374646
0,1,51,-0.32378834867254497
0,1,51,9.903856275843662
0,1,51,3409.574086301179
0,1,51,2869.0426437241267
0,1,51,-0.32378834867254497
0,1,51,6.4757669734509
0,1,51,21.325470324343573
0,1,51,1.912455905403677
0,1,51,12.478223861286782
0,1,51,13.0
0,1,51,37.0
0,1,51,181910.27382178334
0,1,51,454.67084565972243
0,1,51,21.325470324343573
0,1,51,2779.0000000000036
0,1,51,6.94750000000001
0,1,51,154.77079498466082
0,1,51,283.96290889082405
0,1,51,1579241.0854240141
0,1,51,127.73583327516879
0,1,51,22467472.317757454
0,1,51,175527.1274824801
0,1,51,1.0199273255791323
0,1,51,5739802596.191072
0,1,51,44934944.63551491
0,1,51,16316.443102501718
0,1,51,272.0
0,1,51,9367.748259950742
0,1,51,0.43851561966544206
0,1,51,183.15835411941845
0,1,51,64.06856413782684
0,1,51,-1.3771819160176366
0,1,51,0.9499752791683884
0,1,51,72.0
0,1,52,3571.7054955315643
0,1,52,1.3357949846607853
0,1,52,8.929263738828912
0,1,52,3125.362454982005
0,1,52,2708.010246231832
0,1,52,1.3357949846607853
0,1,52,26.715899693215704
0,1,52,17.64235704575593
0,1,52,1.8503719568996273
0,1,52,13.409642224713535
0,1,52,13.0
0,1,52,33.0
0,1,52,124501.10485197355
0,1,52,309.4684138888887
0,1,52,17.64235704575593
0,1,52,2928.500000000001
0,1,52,7.321250000000003
0,1,52,110.77079498466082
0,1,52,253.56145420313325
0,1,52,1534715.0532214954
0,1,52,128.12045089912755
0,1,52,15385167.930189172
0,1,52,120196.6244546029
0,1,52,1.0138320950196444
0,1,52,3942309304.7492676
0,1,52,30770335.860378344
0,1,52,16414.84993859575
0,1,52,318.0
0,1,52,7325.708533876737
0,1,52,0.6726285561937309
0,1,52,164.46035534276854
0,1,52,63.864822646264415
0,1,52,-1.2581655458771415
0,1,52,0.8455877099062573
0,1,52,101.0
0,1,53,3860.7905162064926
0,1,53,-0.1717050153392124
0,1,53,9.651976290516231
0,1,53,3435.155118714162
0,1,53,2983.089753234632
0,1,53,-0.1717050153392124
0,1,53,3.4341003067842477
0,1,53,22.737369722943946
0,1,53,1.8243774861676694
0,1,53,15.3941237111538
0,1,53,15.0
0,1,53,34.0
0,1,53,206795.19276713923
0,1,53,516.9584993055557
0,1,53,22.737369722943946
0,1,53,2956.1666666666656
0,1,53,7.390416666666664
0,1,53,158.43746165132745
0,1,53,317.51338405841096
0,1,53,1841314.7093034878
0,1,53,128.7662723982676
0,1,53,25837227.01558326
0,1,53,201853.33605924423
0,1,53,1.0035418845292374
0,1,53,6653926823.808947
0,1,53,51674454.03116652
0,1,53,16580.752907344853
0,1,53,295.0
0,1,53,10817.42595878791
0,1,53,0.5109157154773102
0,1,53,204.68685339965697
0,1,53,64.09834834751135
0,1,53,-1.3737892571529442
0,1,53,1.1749130149403404
0,1,53,109.0
0,1,54,4320.207643057229
0,1,54,-0.23253834867254583
0,1,54,10.800519107643073
0,1,54,3878.4061924769912
0,1,54,3339.53816646657
0,1,54,-0.23253834867254583
0,1,54,4.650766973450916
0,1,54,25.099084903089434
0,1,54,1.8944342509814447
0,1,54,14.884852287631753
0,1,54,16.0
0,1,54,40.0
0,1,54,251985.62518899675
0,1,54,629.9099888888885
0,1,54,25.099084903089434
0,1,54,2960.166666666667
0,1,54,7.4004166666666675
0,1,54,160.27079498466082
0,1,54,329.9617918475922
0,1,54,1757151.4420051
0,1,54,128.08926310401685
0,1,54,31436603.010603473
0,1,54,245598.46102033963
0,1,54,1.0143223578749347
0,1,54,8053382628.243432
0,1,54,62873206.021206945
0,1,54,16406.859322530054
0,1,54,279.0
0,1,54,12409.023511759142
0,1,54,0.48128991130153864
0,1,54,213.1302220489363
0,1,54,64.09026230019471
0,1,54,-1.9383386443422934
0,1,54,1.8672666525169035
0,1,54,86.0
0,1,55,3732.1675870348076
0,1,55,-0.7017050153392141
0,1,55,9.33041896758702
0,1,55,3348.927754435101
0,1,55,2971.138421902087
0,1,55,-0.7017050153392141
0,1,55,14.034100306784282
0,1,55,23.07455838774955
0,1,55,1.7857399069282573
0,1,55,15.904168156341779
0,1,55,14.0
0,1,55,30.0
0,1,55,212974.09791586525
0,1,55,531.942854861111
0,1,55,23.07455838774955
0,1,55,2975.166666666668
0,1,55,7.43791666666667
0,1,55,163.60412831799408
0,1,55,332.5155182479518
0,1,55,1650297.6378659378
0,1,55,128.75587816311267
0,1,55,26791357.8049657
0,1,55,209307.48285129454
0,1,55,1.0037412596583208
0,1,55,6899089602.721043
0,1,55,53582715.6099314
0,1,55,16578.076161554312
0,1,55,265.0
0,1,55,10429.974779537448
0,1,55,0.5995224273954731
0,1,55,215.10034965493358
0,1,55,64.02064923807453
0,1,55,-1.7478439161285115
0,1,55,1.6121857091659821
0,1,55,115.0
0,1,56,3976.331185807673
0,1,56,1.9470449846607858
0,1,56,9.940827964519183
0,1,56,3501.175913698823
0,1,56,2844.003625716944
0,1,56,1.9470449846607858
0,1,56,38.94089969321571
0,1,56,19.774801322188168
0,1,56,1.9267677794540106
0,1,56,11.088888595905265
0,1,56,17.0
0,1,56,31.0
0,1,56,156417.10693280597
0,1,56,387.2517831597222
0,1,56,19.774801322188168
0,1,56,2514.5000000000023
0,1,56,6.286250000000006
0,1,56,96.27079498466082
0,1,56,254.52457831466774
0,1,56,1778318.4388968686
0,1,56,128.99434323618314
0,1,56,18873411.067586325
0,1,56,147448.52396551816
0,1,56,1.0000874708886456
0,1,56,4869126530.579617
0,1,56,37746822.13517265
0,1,56,16639.54058693423
0,1,56,262.0
0,1,56,8606.2978404433
0,1,56,0.37889670245261564
0,1,56,166.7910187729292
0,1,56,63.75095966935275
0,1,56,-1.391791081975557
0,1,56,1.0030897947302435
0,1,56,88.0
0,1,57,3766.3367080165167
0,1,57,-2.297955015339222
0,1,57,9.415841770041292
0,1,57,3293.722105508847
0,1,57,2771.856272909128
0,1,57,-2.297955015339222
0,1,57,45.95910030678443
0,1,57,18.283605926895888
0,1,57,1.8969278605905835
0,1,57,10.950290836124472
0,1,57,13.0
0,1,57,43.0
0,1,57,133716.09827600897
0,1,57,329.0096484375
0,1,57,18.283605926895888
0,1,57,2761.500000000001
0,1,57,6.903750000000002
0,1,57,92.93746165132745
0,1,57,233.07394062344815
0,1,57,1122489.5127741767
0,1,57,125.10119645760335
0,1,57,16268207.995352903
0,1,57,127095.37496369456
0,1,57,1.0628110692152266
0,1,57,4070344568.8795943
0,1,57,32536415.990705807
0,1,57,15650.309355123869
0,1,57,308.0
0,1,57,7187.065929482606
0,1,57,0.47075455615998163
0,1,57,151.09827943608428
0,1,57,63.637625143075496
0,1,57,-1.495341303137796
0,1,57,1.0288187299577551
0,1,57,84.0
0,1,58,3501.372162198239
0,1,58,1.2957949846607875
0,1,58,8.753430405495598
0,1,58,3052.758786848081
0,1,58,2495.512332399622
0,1,58,1.2957949846607875
0,1,58,25.91589969321575
0,1,58,18.536783661983023
0,1,58,1.8501647868158508
0,1,58,10.560845967903491
0,1,58,18.0
0,1,58,33.0
0,1,58,137444.93941246427
0,1,58,341.933263888889
0,1,58,18.536783661983023
0,1,58,2532.666666666669
0,1,58,6.331666666666672
0,1,58,117.60412831799408
0,1,58,238.15563362219814
0,1,58,1531437.847233889
0,1,58,128.99883377784778
0,1,58,16825265.060739134
0,1,58,131447.38328702448
0,1,58,1.0000068488064568
0,1,58,4340879141.677034
0,1,58,33650530.12147827
0,1,58,16640.6991160448
0,1,58,258.0
0,1,58,7084.552665263642
0,1,58,0.43044987864985507
0,1,58,155.58268236892937
0,1,58,63.85820599590371
0,1,58,-1.548249831569472
0,1,58,1.1876539418264804
0,1,58,98.0
0,1,59,4589.084100306792
0,1,59,-0.6754550153392155
0,1,59,11.47271025076698
0,1,59,4151.9696511938055
0,1,59,3654.777075230075
0,1,59,-0.6754550153392155
0,1,59,13.50910030678431
0,1,59,27.4445745068072
0,1,59,1.882282944672677
0,1,59,16.77970024449728
0,1,59,14.0
0,1,59,42.0
0,1,59,301281.86794387666
0,1,59,752.7484303819436
0,1,59,27.4445745068072
0,1,59,3138.000000000002
0,1,59,7.845000000000005
0,1,59,188.93746165132745
0,1,59,372.3999956499318
0,1,59,2629939.9436665466
0,1,59,128.35738263366017
0,1,59,37894572.27788375
0,1,59,296051.3459209668
0,1,59,1.0100171567893939
0,1,59,9728096227.222431
0,1,59,75789144.5557675
0,1,59,16475.617676563845
0,1,59,286.0
0,1,59,15347.7849338386
0,1,59,0.479007653583133
0,1,59,239.10662166001617
0,1,59,64.03467055192515
0,1,59,-1.5312010448892894
0,1,59,1.3549834199253712
0,1,59,107.0
0,1,60,3734.3321061758134
0,1,60,0.2999616513274526
0,1,60,9.335830265439533
0,1,60,3300.8844771241934
0,1,60,2781.896219687872
0,1,60,0.2999616513274526
0,1,60,5.999233026549053
0,1,60,18.83318476838276
0,1,60,1.911447218065143
0,1,60,14.375605516771213
0,1,60,17.0
0,1,60,36.0
0,1,60,141875.53940801776
0,1,60,354.59887152777867
0,1,60,18.83318476838276
0,1,60,2905.6666666666656
0,1,60,7.264166666666664
0,1,60,103.10412831799408
0,1,60,272.09510679792913
0,1,60,1612408.185457615
0,1,60,128.58655951040015
0,1,60,17425186.4048501
0,1,60,136134.2687878914
0,1,60,1.0062921952096344
0,1,60,4481289537.254146
0,1,60,34850372.8097002
0,1,60,16534.50328672168
0,1,60,277.0
0,1,60,8025.022807574442
0,1,60,0.556861236495334
0,1,60,177.18669379839048
0,1,60,64.07096538936531
0,1,60,-1.3232420727901446
0,1,60,1.2323217608191215
0,1,60,105.0
0,2,0,7070.615766306523
0,2,0,2.1216856742697168
0,2,0,17.67653941576631
0,2,0,6343.468027210883
0,2,0,5346.473801920767
0,2,0,2.1216856742697168
0,2,0,42.433713485394335
0,2,0,40.3999222285467
0,2,0,2.390485748316003
0,2,0,15.335769030329091
0,2,0,42.0
0,2,0,104.0
0,2,0,652861.4864290486
0,2,0,1627.6521659722234
0,2,0,40.3999222285467
0,2,0,3504.8333333333308
0,2,0,8.762083333333328
0,2,0,139.36418567426972
0,2,0,428.80643929520414
0,2,0,11748729.741521621
0,2,0,128.9879128479699
0,2,0,81110301.48342632
0,2,0,633674.2303392681
0,2,0,1.0001650066315395
0,2,0,20924496997.63352
0,2,0,162220602.96685264
0,2,0,16637.881660875482
0,2,0,302.0
0,2,0,31243.57162619838
0,2,0,0.26246299536884693
0,2,0,281.00204748592233
0,2,0,63.883158103220126
0,2,0,-1.313008840997413
0,2,0,0.5509573115248837
0,2,0,104.0
0,2,1,6500.541976790719
0,2,1,0.21085234093638805
0,2,1,16.251354941976796
0,2,1,5831.622609043613
0,2,1,4983.317811124448
0,2,1,0.21085234093638805
0,2,1,4.21704681872776
0,2,1,36.24036811253304
0,2,1,2.2267977150462994
0,2,1,17.780735447368023
0,2,1,24.0
0,2,1,110.0
0,2,1,525345.7123727606
0,2,1,1313.3198222222222
0,2,1,36.24036811253304
0,2,1,3982.3333333333326
0,2,1,9.95583333333333
0,2,1,144.03085234093635
0,2,1,441.6843079984376
0,2,1,7376922.322509788
0,2,1,128.5443095872629
0,2,1,65632126.91930736
0,2,1,512750.99155708874
0,2,1,1.0071366394588273
0,2,1,16873272883.17195
0,2,1,131264253.83861472
0,2,1,16523.639527266085
0,2,1,341.0
0,2,1,26907.33538311099
0,2,1,0.375010068388895
0,2,1,285.37555572965033
0,2,1,64.10155485648426
0,2,1,-1.4703320122166175
0,2,1,1.0534093230699888
0,2,1,101.0
0,2,2,5824.900760304127
0,2,2,-0.9066476590636129
0,2,2,14.562251900760318
0,2,2,5158.370068027216
0,2,2,4239.608240496202
0,2,2,-0.9066476590636129
0,2,2,18.132953181272256
0,2,2,30.659214100874163
0,2,2,2.131490970327542
0,2,2,19.059743165211074
0,2,2,20.0
0,2,2,97.0
0,2,2,375994.9637132964
0,2,2,939.1653993055542
0,2,2,30.659214100874163
0,2,2,4168.166666666663
0,2,2,10.420416666666659
0,2,2,100.36418567426972
0,2,2,397.5291313747186
0,2,2,4209698.047071115
0,2,2,127.00738408697396
0,2,2,46001993.8267103
0,2,2,359390.5767711742
0,2,2,1.0316114159251666
0,2,2,11685185797.4312
0,2,2,92003987.6534206
0,2,2,16130.875612616126
0,2,2,379.0
0,2,2,19142.58699451332
0,2,2,0.4945434765939644
0,2,2,260.6409548382965
0,2,2,64.01371379056324
0,2,2,-1.3824863062032247
0,2,2,1.2237699935319162
0,2,2,97.0
0,2,3,5557.648219287714
0,2,3,-0.9220643257302821
0,2,3,13.894120548219284
0,2,3,4791.429231692675
0,2,3,3687.0130036014434
0,2,3,-0.9220643257302821
0,2,3,18.441286514605643
0,2,3,27.104266263254495
0,2,3,2.2452128148469845
0,2,3,14.868927472319896
0,2,3,20.0
0,2,3,60.0
0,2,3,293856.4998677583
0,2,3,733.791047048611
0,2,3,27.104266263254495
0,2,3,3664.5000000000014
0,2,3,9.161250000000004
0,2,3,119.36418567426972
0,2,3,334.06194934549313
0,2,3,4138312.0969807077
0,2,3,125.25235709096334
0,2,3,35277480.97645021
0,2,3,275605.3201285173
0,2,3,1.0602893281056514
0,2,3,8837175289.064016
0,2,3,70554961.95290042
0,2,3,15688.152956842196
0,2,3,362.0
0,2,3,15182.609085032862
0,2,3,0.42327267353092374
0,2,3,217.1426424586521
0,2,3,63.98909540382404
0,2,3,-1.4764119938409466
0,2,3,1.1933450749775265
0,2,3,77.0
0,2,4,6165.197198879552
0,2,4,0.8925190076030532
0,2,4,15.41299299719888
0,2,4,5210.06758703481
0,2,4,4063.324827130852
0,2,4,0.8925190076030532
0,2,4,17.850380152061064
0,2,4,29.101001484504877
0,2,4,2.4125766643827338
0,2,4,19.44812233983664
0,2,4,28.0
0,2,4,77.0
0,2,4,338747.31496046204
0,2,4,846.071697222222
0,2,4,29.101001484504877
0,2,4,3551.666666666667
0,2,4,8.879166666666668
0,2,4,104.69751900760309
0,2,4,390.4212039259941
0,2,4,3829959.904229144
0,2,4,127.33026909003785
0,2,4,40698162.671634965
0,2,4,317954.39587214816
0,2,4,1.0264287002964783
0,2,4,10364216008.898827
0,2,4,81396325.34326993
0,2,4,16212.997426541448
0,2,4,232.0
0,2,4,17164.640390070163
0,2,4,0.5509196572462157
0,2,4,252.8555099598691
0,2,4,64.01207128929086
0,2,4,-1.5377710282725272
0,2,4,1.4874429188809095
0,2,4,46.0
0,2,5,5036.288795518212
0,2,5,1.615435674269719
0,2,5,12.590721988795531
0,2,5,4395.675090036016
0,2,5,3599.895127250901
0,2,5,1.615435674269719
0,2,5,32.30871348539438
0,2,5,27.275256751407543
0,2,5,2.188776135518883
0,2,5,19.878013179499504
0,2,5,23.0
0,2,5,114.0
0,2,5,297575.85234208114
0,2,5,741.3299984374992
0,2,5,27.275256751407543
0,2,5,3899.8333333333294
0,2,5,9.749583333333323
0,2,5,87.69751900760309
0,2,5,376.2305985250026
0,2,5,2962875.048562032
0,2,5,128.87342587074488
0,2,5,36389348.638074845
0,2,5,284291.7862349597
0,2,5,1.001957833436557
0,2,5,9379240048.387259
0,2,5,72778697.27614969
0,2,5,16608.359895662375
0,2,5,254.0
0,2,5,14768.31216347361
0,2,5,0.6258693851781925
0,2,5,245.81729940570096
0,2,5,63.91453892756664
0,2,5,-1.3260470290637194
0,2,5,1.177404631023722
0,2,5,107.0
0,2,6,4809.759543817527
0,2,6,-2.5662309923969455
0,2,6,12.024398859543817
0,2,6,4355.176370548216
0,2,6,3875.435488195273
0,2,6,-2.5662309923969455
0,2,6,51.32461984793891
0,2,6,26.459459392299156
0,2,6,1.9935870874994412
0,2,6,20.28031421176673
0,2,6,22.0
0,2,6,116.0
0,2,6,280041.1965330912
0,2,6,693.5174498263892
0,2,6,26.459459392299156
0,2,6,4137.666666666665
0,2,6,10.344166666666663
0,2,6,110.36418567426972
0,2,6,379.84616446189847
0,2,6,3148746.317968977
0,2,6,127.32781642313066
0,2,6,35145555.769460715
0,2,6,274574.65444891184
0,2,6,1.026308687849192
0,2,6,8950013746.20559
0,2,6,70291111.53892143
0,2,6,16212.37283508246
0,2,6,282.0
0,2,6,14300.71441005843
0,2,6,0.6521342716644852
0,2,6,244.79188027210012
0,2,6,63.789121970144436
0,2,6,-1.2153679871385608
0,2,6,1.0461358812570236
0,2,6,97.0
0,2,7,5290.523529411769
0,2,7,0.3129356742697223
0,2,7,13.226308823529424
0,2,7,4746.604161664665
0,2,7,4054.2587214885966
0,2,7,0.3129356742697223
0,2,7,6.258713485394447
0,2,7,30.383910845788797
0,2,7,2.061135836468678
0,2,7,17.493281520543913
0,2,7,21.0
0,2,7,105.0
0,2,7,369272.81531393685
0,2,7,923.0841095486113
0,2,7,30.383910845788797
0,2,7,3844.333333333333
0,2,7,9.610833333333332
0,2,7,143.86418567426972
0,2,7,402.47833963088544
0,2,7,5017758.364521125
0,2,7,128.46188844102534
0,2,7,46102916.265018955
0,2,7,360179.0333204606
0,2,7,1.0084432215516954
0,2,7,11844935372.085594
0,2,7,92205832.53003791
0,2,7,16502.45678183444
0,2,7,313.0
0,2,7,18918.511688312883
0,2,7,0.4795609882654009
0,2,7,260.05440629253894
0,2,7,64.0866621599235
0,2,7,-1.427093776892739
0,2,7,1.0313541178011405
0,2,7,102.0
0,2,8,4720.536894757907
0,2,8,-1.3128976590636114
0,2,8,11.801342236894769
0,2,8,4275.0618647459
0,2,8,3741.2282184873934
0,2,8,-1.3128976590636114
0,2,8,26.257953181272228
0,2,8,25.62878254100277
0,2,8,1.9392834327844348
0,2,8,21.191269357087474
0,2,8,23.0
0,2,8,76.0
0,2,8,262733.7978136034
0,2,8,655.1107942708339
0,2,8,25.62878254100277
0,2,8,4156.000000000001
0,2,8,10.390000000000002
0,2,8,108.53085234093635
0,2,8,346.2261034015281
0,2,8,2651653.9634489347
0,2,8,128.20935368175685
0,2,8,32718673.60539509
0,2,8,255614.63754214914
0,2,8,1.0124239752699493
0,2,8,8389679992.544123
0,2,8,65437347.21079018
0,2,8,16437.63837149382
0,2,8,337.0
0,2,8,14129.583719535041
0,2,8,0.7615775718821153
0,2,8,222.15153410903736
0,2,8,63.935757105099455
0,2,8,-1.2285791594805904
0,2,8,1.0088287253255606
0,2,8,92.0
0,2,9,5019.936374549827
0,2,9,1.8633523409363904
0,2,9,12.549840936374567
0,2,9,4472.933993597435
0,2,9,3740.642416166467
0,2,9,1.8633523409363904
0,2,9,37.267046818727806
0,2,9,27.68475559514912
0,2,9,1.9468034480723089
0,2,9,20.846717505245905
0,2,9,19.0
0,2,9,40.0
0,2,9,306578.2769452562
0,2,9,762.9736104166668
0,2,9,27.68475559514912
0,2,9,3698.666666666665
0,2,9,9.246666666666663
0,2,9,132.1975190076031
0,2,9,375.70236398448674
0,2,9,3717468.248380248
0,2,9,128.98750845153822
0,2,9,38130092.777010426
0,2,9,297891.34982039395
0,2,9,1.0001929953536104
0,2,9,9836611328.665136
0,2,9,76260185.55402085
0,2,9,16637.777336535644
0,2,9,277.0
0,2,9,17134.427612342737
0,2,9,0.6394650910612363
0,2,9,244.66775089312506
0,2,9,63.88106056831796
0,2,9,-1.4576059140564281
0,2,9,1.4297811646115868
0,2,9,85.0
0,2,10,4783.462464985995
0,2,10,0.05376900760305631
0,2,10,11.958656162464989
0,2,10,4308.083173269315
0,2,10,3785.1611016406578
0,2,10,0.05376900760305631
0,2,10,1.0753801520611261
0,2,10,25.95800704640973
0,2,10,1.9699473356156654
0,2,10,18.03795234686367
0,2,10,26.0
0,2,10,69.0
0,2,10,269527.25192858285
0,2,10,673.8152387152788
0,2,10,25.95800704640973
0,2,10,3432.333333333333
0,2,10,8.580833333333333
0,2,10,110.69751900760309
0,2,10,361.3969492719595
0,2,10,3320977.1183135575
0,2,10,128.9832700761743
0,2,10,33755312.22414931
0,2,10,263713.3767511665
0,2,10,1.000221237502369
0,2,10,8707741106.226076
0,2,10,67510624.44829862
0,2,10,16636.683959543323
0,2,10,248.0
0,2,10,14324.443783112458
0,2,10,0.6038506657162094
0,2,10,231.00754237541722
0,2,10,64.11778176516987
0,2,10,-1.3546801831258926
0,2,10,1.1471773285134492
0,2,10,116.0
0,2,11,5407.912845138057
0,2,11,0.13751900760305688
0,2,11,13.519782112845142
0,2,11,4785.981072428968
0,2,11,3969.0680696278464
0,2,11,0.13751900760305688
0,2,11,2.7503801520611377
0,2,11,29.691565493881438
0,2,11,2.121683535120662
0,2,11,24.47207559623311
0,2,11,17.0
0,2,11,106.0
0,2,11,352635.62459098035
0,2,11,881.5701499999999
0,2,11,29.691565493881438
0,2,11,4228.333333333337
0,2,11,10.570833333333342
0,2,11,173.6975190076031
0,2,11,429.58071829170643
0,2,11,2866730.844200683
0,2,11,128.21033693264448
0,2,11,43716464.983066164
0,2,11,341534.8826802044
0,2,11,1.0124126041289359
0,2,11,11209805409.966135
0,2,11,87432929.96613233
0,2,11,16437.89049638222
0,2,11,245.0
0,2,11,19851.49530456545
0,2,11,0.7651941272463653
0,2,11,276.03993422185704
0,2,11,64.10927149474728
0,2,11,-1.3708354875327906
0,2,11,1.4164078613911677
0,2,11,85.0
0,2,12,5523.122769107647
0,2,12,-0.054147659063614524
0,2,12,13.80780692276912
0,2,12,4945.305182072827
0,2,12,4264.547253701479
0,2,12,-0.054147659063614524
0,2,12,1.0829531812722906
0,2,12,30.32871322456444
0,2,12,2.203265624559094
0,2,12,19.319046661514516
0,2,12,28.0
0,2,12,108.0
0,2,12,367932.33834314795
0,2,12,919.8279138888895
0,2,12,30.32871322456444
0,2,12,3895.3333333333308
0,2,12,9.738333333333328
0,2,12,114.19751900760309
0,2,12,397.37342026075885
0,2,12,4887298.643226151
0,2,12,128.76761757761196
0,2,12,45643900.10474149
0,2,12,356592.9695682929
0,2,12,1.0036211516124443
0,2,12,11754912546.87615
0,2,12,91287800.20948298
0,2,12,16581.09933661412
0,2,12,288.0
0,2,12,18614.05323157933
0,2,12,0.544709537801608
0,2,12,257.3361731695903
0,2,12,64.11849812830765
0,2,12,-1.5366656713330487
0,2,12,1.236771675305047
0,2,12,115.0
0,2,13,6412.617046818727
0,2,13,0.14918567426972204
0,2,13,16.031542617046817
0,2,13,5829.919687875143
0,2,13,5121.0377334933955
0,2,13,0.14918567426972204
0,2,13,2.983713485394441
0,2,13,33.182202027071796
0,2,13,2.1728205747119524
0,2,13,21.31875415572959
0,2,13,29.0
0,2,13,116.0
0,2,13,440423.41254616296
0,2,13,1101.0362750000006
0,2,13,33.182202027071796
0,2,13,4207.333333333333
0,2,13,10.518333333333333
0,2,13,180.6975190076031
0,2,13,446.120461587392
0,2,13,3244405.4209096003
0,2,13,128.85870716217474
0,2,13,54782295.84234319
0,2,13,427986.68626830616
0,2,13,1.0021947547501482
0,2,13,14118351635.240246
0,2,13,109564591.68468638
0,2,13,16604.566411507105
0,2,13,295.0
0,2,13,22732.454275852175
0,2,13,0.5309135045875283
0,2,13,288.4343743850086
0,2,13,64.10866100578579
0,2,13,-1.4898552985271933
0,2,13,1.1932087825360205
0,2,13,85.0
0,2,14,5274.937655062027
0,2,14,-0.06831432573027911
0,2,14,13.187344137655069
0,2,14,4702.518287314922
0,2,14,3952.440741896762
0,2,14,-0.06831432573027911
0,2,14,1.3662865146055823
0,2,14,28.880411460930674
0,2,14,2.0231677280601534
0,2,14,16.935392079113313
0,2,14,21.0
0,2,14,84.0
0,2,14,333631.2664610623
0,2,14,834.0734993055557
0,2,14,28.880411460930674
0,2,14,3430.499999999998
0,2,14,8.576249999999996
0,2,14,122.53085234093635
0,2,14,378.35398138911665
0,2,14,3232772.241617506
0,2,14,128.11746205100266
0,2,14,41494445.8893487
0,2,14,324175.3585105367
0,2,14,1.0138852598074657
0,2,14,10632326193.11203
0,2,14,82988891.7786974
0,2,14,16414.084082390105
0,2,14,305.0
0,2,14,17794.659714731974
0,2,14,0.4866708787348267
0,2,14,245.87712030401988
0,2,14,64.11633636202122
0,2,14,-1.514898285546147
0,2,14,1.328988834618191
0,2,14,73.0
0,2,15,6759.054701880756
0,2,15,0.03710234093638604
0,2,15,16.89763675470189
0,2,15,6188.904101640656
0,2,15,5488.164864345736
0,2,15,0.03710234093638604
0,2,15,0.7420468187277209
0,2,15,39.80487325370379
0,2,15,2.1558790689003873
0,2,15,21.065164572148152
0,2,15,28.0
0,2,15,59.0
0,2,15,633771.1738973693
0,2,15,1584.4265581597226
0,2,15,39.80487325370379
0,2,15,3969.333333333336
0,2,15,9.923333333333341
0,2,15,160.86418567426972
0,2,15,502.119234697067
0,2,15,6030760.5137871215
0,2,15,128.97671340853796
0,2,15,79678748.439382
0,2,15,622490.2221826719
0,2,15,1.0003617426577076
0,2,15,20553406204.434326
0,2,15,159357496.878764
0,2,15,16634.992601668135
0,2,15,300.0
0,2,15,32695.992151944232
0,2,15,0.44608253608954856
0,2,15,322.63033914732443
0,2,15,64.12155743154433
0,2,15,-1.7738309358745585
0,2,15,1.4968159488070314
0,2,15,82.0
0,2,16,5190.783073229293
0,2,16,0.3646023409363873
0,2,16,12.976957683073234
0,2,16,4697.450220088031
0,2,16,3991.070925970386
0,2,16,0.3646023409363873
0,2,16,7.292046818727747
0,2,16,29.16553481087766
0,2,16,1.945008230291488
0,2,16,18.225514582249872
0,2,16,22.0
0,2,16,39.0
0,2,16,340251.3683218066
0,2,16,850.4954859374999
0,2,16,29.16553481087766
0,2,16,3520.500000000001
0,2,16,8.801250000000003
0,2,16,111.86418567426972
0,2,16,374.67997058871543
0,2,16,5309527.034127282
0,2,16,128.8729483248417
0,2,16,42247605.032045774
0,2,16,330059.4143128576
0,2,16,1.0019858207741807
0,2,16,10889146840.286314
0,2,16,84495210.06409155
0,2,16,16608.23680993732
0,2,16,301.0
0,2,16,16753.930084352447
0,2,16,0.4978598187266289
0,2,16,240.93623103639084
0,2,16,64.07672511138628
0,2,16,-1.3308556905709905
0,2,16,1.137344652858185
0,2,16,82.0
0,2,17,5859.795798319331
0,2,17,-0.38039765906361295
0,2,17,14.649489495798328
0,2,17,5323.913645458182
0,2,17,4558.722849939973
0,2,17,-0.38039765906361295
0,2,17,7.607953181272259
0,2,17,32.42374953872322
0,2,17,2.090787897954261
0,2,17,20.063483553951663
0,2,17,24.0
0,2,17,50.0
0,2,17,420519.8136599418
0,2,17,1051.154831770833
0,2,17,32.42374953872322
0,2,17,3764.1666666666683
0,2,17,9.410416666666672
0,2,17,118.03085234093635
0,2,17,434.7021357849536
0,2,17,4068941.553622969
0,2,17,128.67227884802776
0,2,17,52151585.04666496
0,2,17,407434.25817707
0,2,17,1.005132108215917
0,2,17,13420926586.982216
0,2,17,104303170.09332992
0,2,17,16556.555343944612
0,2,17,288.0
0,2,17,22565.460882125393
0,2,17,0.5256247863701945
0,2,17,279.01215379468465
0,2,17,64.08153130231219
0,2,17,-1.4156766570322479
0,2,17,1.195227385683772
0,2,17,74.0
0,2,18,5968.307883153264
0,2,18,1.0425190076030535
0,2,18,14.92076970788316
0,2,18,5415.607663065222
0,2,18,4597.942109243698
0,2,18,1.0425190076030535
0,2,18,20.85038015206107
0,2,18,32.65659774741958
0,2,18,2.117301417809991
0,2,18,25.628821006152712
0,2,18,26.0
0,2,18,62.0
0,2,18,426581.3505747078
0,2,18,1065.3665305555546
0,2,18,32.65659774741958
0,2,18,4310.166666666668
0,2,18,10.77541666666667
0,2,18,151.86418567426972
0,2,18,461.7250608573355
0,2,18,5020193.62546385
0,2,18,128.91895329844633
0,2,18,53218181.53357972
0,2,18,415767.0432310916
0,2,18,1.0012362972215698
0,2,18,13721664519.511604
0,2,18,106436363.06715944
0,2,18,16620.096519566985
0,2,18,285.0
0,2,18,22596.00158804927
0,2,18,0.6806997651777283
0,2,18,299.112266330278
0,2,18,64.01349429266963
0,2,18,-1.3896277652920155
0,2,18,1.2742417522127758
0,2,18,86.0
0,2,19,6279.895038015202
0,2,19,-1.161230992396945
0,2,19,15.699737595038005
0,2,19,5535.488075230083
0,2,19,4429.196453781504
0,2,19,-1.161230992396945
0,2,19,23.2246198479389
0,2,19,32.25440482872383
0,2,19,2.2185199865627214
0,2,19,19.09691824015683
0,2,19,21.0
0,2,19,85.0
0,2,19,416138.6523420811
0,2,19,1038.9981734375
0,2,19,32.25440482872383
0,2,19,3626.0
0,2,19,9.065
0,2,19,161.86418567426972
0,2,19,415.22336439894195
0,2,19,4976660.065626399
0,2,19,127.98886713871217
0,2,19,49716705.77314221
0,2,19,388411.7638526735
0,2,19,1.015884885392371
0,2,19,12726369699.546286
0,2,19,99433411.54628442
0,2,19,16381.150111450916
0,2,19,215.0
0,2,19,21511.644122914873
0,2,19,0.4675610141030471
0,2,19,270.3399454814286
0,2,19,63.98752131355164
0,2,19,-1.4129707458755871
0,2,19,1.0240878594169924
0,2,19,67.0
0,2,20,4619.32633053221
0,2,20,0.8596023409363863
0,2,20,11.548315826330525
0,2,20,3995.9750300120045
0,2,20,3193.3815950380144
0,2,20,0.8596023409363863
0,2,20,17.192046818727725
0,2,20,21.175597017947045
0,2,20,2.1232577791799585
0,2,20,14.475512023520254
0,2,20,22.0
0,2,20,108.0
0,2,20,179362.3636265951
0,2,20,447.6669928819442
0,2,20,21.175597017947045
0,2,20,3231.833333333331
0,2,20,8.079583333333328
0,2,20,67.36418567426972
0,2,20,276.564566004787
0,2,20,1621417.01496909
0,2,20,128.84234801427078
0,2,20,21681393.298925847
0,2,20,169385.88514785818
0,2,20,1.0024301013522472
0,2,20,5586963241.708964
0,2,20,43362786.59785169
0,2,20,16600.350641830468
0,2,20,230.0
0,2,20,9347.748457965155
0,2,20,0.5924326476062789
0,2,20,180.83395972321568
0,2,20,63.97283350471001
0,2,20,-1.5014234294700466
0,2,20,1.2520481118083027
0,2,20,87.0
0,2,21,4840.202921168472
0,2,21,0.49126900760305237
0,2,21,12.10050730292118
0,2,21,4219.484253701483
0,2,21,3428.1475038015205
0,2,21,0.49126900760305237
0,2,21,9.825380152061047
0,2,21,23.797723702017244
0,2,21,2.1176292659136213
0,2,21,17.33969422518431
0,2,21,22.0
0,2,21,101.0
0,2,21,226532.66135902132
0,2,21,566.0903081597222
0,2,21,23.797723702017244
0,2,21,3577.0
0,2,21,8.9425
0,2,21,114.86418567426972
0,2,21,323.20207504938725
0,2,21,2141961.3500197227
0,2,21,128.7855873182162
0,2,21,27664259.43097867
0,2,21,216127.02680452086
0,2,21,1.0033555615692056
0,2,21,7125515797.084179
0,2,21,55328518.86195734
0,2,21,16585.727500897887
0,2,21,266.0
0,2,21,12463.71579190782
0,2,21,0.6462581379728535
0,2,21,208.6167418024803
0,2,21,64.04974074221114
0,2,21,-1.5036169267649242
0,2,21,1.363692380252858
0,2,21,98.0
0,2,22,5604.091596638661
0,2,22,0.40876900760305473
0,2,22,14.010228991596653
0,2,22,4897.342076830735
0,2,22,3822.342356942781
0,2,22,0.40876900760305473
0,2,22,8.175380152061095
0,2,22,28.541546841308936
0,2,22,2.205664957037141
0,2,22,18.713799175684773
0,2,22,25.0
0,2,22,107.0
0,2,22,325847.95843785285
0,2,22,814.4528039930555
0,2,22,28.541546841308936
0,2,22,3799.1666666666665
0,2,22,9.497916666666667
0,2,22,100.19751900760309
0,2,22,388.1395798202416
0,2,22,3100164.9118793574
0,2,22,128.39653371361257
0,2,22,38959924.807529345
0,2,22,304374.412558823
0,2,22,1.009437064353742
0,2,22,10004638598.059504
0,2,22,77919849.61505869
0,2,22,16485.669869670848
0,2,22,288.0
0,2,22,16163.329684168
0,2,22,0.5345859298323042
0,2,22,250.8174274165457
0,2,22,64.07299064849583
0,2,22,-1.3342646152438014
0,2,22,1.1231178607250507
0,2,22,86.0
0,2,23,5789.739815926374
0,2,23,0.09835234093638874
0,2,23,14.474349539815934
0,2,23,5218.7527010804315
0,2,23,4477.4966506602605
0,2,23,0.09835234093638874
0,2,23,1.9670468187277748
0,2,23,32.6034695706466
0,2,23,2.1086468416661233
0,2,23,21.51935170750843
0,2,23,26.0
0,2,23,94.0
0,2,23,425194.4912176316
0,2,23,1062.9765548611122
0,2,23,32.6034695706466
0,2,23,3965.833333333331
0,2,23,9.914583333333328
0,2,23,128.6975190076031
0,2,23,464.2880271397383
0,2,23,3494473.242650381
0,2,23,128.91898296947647
0,2,23,52964590.354601406
0,2,23,413785.8621453235
0,2,23,1.0011779923185586
0,2,23,13656282243.820312
0,2,23,105929180.70920281
0,2,23,16620.104169884165
0,2,23,273.0
0,2,23,21759.31710813434
0,2,23,0.6015562858147718
0,2,23,300.1318983669758
0,2,23,64.11473779130422
0,2,23,-1.401349084093575
