1.053200000000000000e+05
1.079690000000000000e+05
1.038040000000000000e+05
9.756200000000000000e+04
9.987500000000000000e+04
1.068660000000000000e+05
1.091480000000000000e+05
1.049440000000000000e+05
9.904600000000000000e+04
1.013470000000000000e+05
1.081980000000000000e+05
1.106330000000000000e+05
1.064690000000000000e+05
1.005080000000000000e+05
1.026710000000000000e+05
1.094380000000000000e+05
1.120590000000000000e+05
1.079080000000000000e+05
1.017740000000000000e+05
1.038190000000000000e+05
1.107000000000000000e+05
1.133090000000000000e+05
1.093680000000000000e+05
1.032120000000000000e+05
1.050920000000000000e+05
1.119460000000000000e+05
1.149080000000000000e+05
1.112410000000000000e+05
1.050310000000000000e+05
1.067060000000000000e+05
1.136090000000000000e+05
1.166960000000000000e+05
1.130040000000000000e+05
1.067750000000000000e+05
1.083190000000000000e+05
1.151930000000000000e+05
1.182340000000000000e+05
1.145690000000000000e+05
1.083510000000000000e+05
1.097380000000000000e+05
1.164760000000000000e+05
1.194700000000000000e+05
1.157180000000000000e+05
1.092470000000000000e+05
1.102900000000000000e+05
1.167940000000000000e+05
1.197320000000000000e+05
1.165610000000000000e+05
1.108270000000000000e+05
1.122070000000000000e+05
1.202080000000000000e+05
1.244430000000000000e+05
1.214750000000000000e+05
1.148980000000000000e+05
1.154610000000000000e+05
1.221630000000000000e+05
1.255440000000000000e+05
1.222140000000000000e+05
1.157180000000000000e+05
1.165790000000000000e+05
1.235290000000000000e+05
1.268730000000000000e+05
1.234550000000000000e+05
1.166620000000000000e+05
1.172830000000000000e+05
1.242680000000000000e+05
1.280440000000000000e+05
1.247460000000000000e+05
1.181930000000000000e+05
1.184150000000000000e+05
1.249920000000000000e+05
1.289430000000000000e+05
1.259930000000000000e+05
1.190600000000000000e+05
1.190140000000000000e+05
1.257910000000000000e+05
1.298340000000000000e+05
1.267460000000000000e+05
1.198380000000000000e+05
1.197070000000000000e+05
1.264190000000000000e+05
1.302310000000000000e+05
1.271420000000000000e+05
1.201430000000000000e+05
1.199790000000000000e+05
1.268880000000000000e+05
1.309080000000000000e+05
1.277250000000000000e+05
1.208090000000000000e+05
1.204460000000000000e+05
1.272500000000000000e+05
1.312240000000000000e+05
1.281000000000000000e+05
1.214410000000000000e+05
1.209320000000000000e+05
1.274000000000000000e+05
1.313460000000000000e+05
1.284290000000000000e+05
1.215650000000000000e+05
1.206780000000000000e+05
1.271510000000000000e+05
1.313060000000000000e+05
1.288040000000000000e+05
1.222770000000000000e+05
1.215040000000000000e+05
1.282040000000000000e+05
1.323890000000000000e+05
1.300360000000000000e+05
1.235940000000000000e+05
1.228760000000000000e+05
1.296240000000000000e+05
1.340160000000000000e+05
1.317120000000000000e+05
1.252130000000000000e+05
1.242120000000000000e+05
1.306960000000000000e+05
1.347940000000000000e+05
1.323650000000000000e+05
1.258830000000000000e+05
1.246770000000000000e+05
1.312040000000000000e+05
1.354430000000000000e+05
1.329660000000000000e+05
1.261740000000000000e+05
1.247800000000000000e+05
1.310830000000000000e+05
1.353990000000000000e+05
1.331980000000000000e+05
1.264230000000000000e+05
1.249090000000000000e+05
1.313860000000000000e+05
1.362920000000000000e+05
1.341510000000000000e+05
1.274430000000000000e+05
1.258750000000000000e+05
1.322180000000000000e+05
1.371480000000000000e+05
1.354580000000000000e+05
1.287960000000000000e+05
1.268920000000000000e+05
1.333160000000000000e+05
1.384680000000000000e+05
1.366740000000000000e+05
1.301590000000000000e+05
1.280140000000000000e+05
1.342860000000000000e+05
1.396230000000000000e+05
1.378690000000000000e+05
1.309610000000000000e+05
1.286850000000000000e+05
1.349640000000000000e+05
1.403920000000000000e+05
1.388570000000000000e+05
1.323590000000000000e+05
1.298950000000000000e+05
1.360200000000000000e+05
1.412480000000000000e+05
1.398110000000000000e+05
1.335960000000000000e+05
1.311310000000000000e+05
1.368580000000000000e+05
1.417400000000000000e+05
1.406240000000000000e+05
1.341610000000000000e+05
1.312740000000000000e+05
1.370430000000000000e+05
1.422940000000000000e+05
1.411150000000000000e+05
1.346470000000000000e+05
1.316590000000000000e+05
1.374420000000000000e+05
1.427240000000000000e+05
1.414710000000000000e+05
1.350530000000000000e+05
1.319730000000000000e+05
1.376380000000000000e+05
1.427810000000000000e+05
1.417110000000000000e+05
1.351710000000000000e+05
1.317480000000000000e+05
1.371280000000000000e+05
1.421930000000000000e+05
1.409800000000000000e+05
1.345130000000000000e+05
1.310930000000000000e+05
1.364840000000000000e+05
1.419380000000000000e+05
1.410590000000000000e+05
1.349360000000000000e+05
1.314310000000000000e+05
1.366960000000000000e+05
1.421060000000000000e+05
1.414540000000000000e+05
1.354110000000000000e+05
1.319960000000000000e+05
1.370990000000000000e+05
1.426660000000000000e+05
1.419970000000000000e+05
1.358320000000000000e+05
1.322060000000000000e+05
1.372910000000000000e+05
1.427910000000000000e+05
1.420290000000000000e+05
1.358430000000000000e+05
1.321340000000000000e+05
1.373820000000000000e+05
1.431100000000000000e+05
1.425600000000000000e+05
1.363150000000000000e+05
1.322460000000000000e+05
1.369800000000000000e+05
1.423170000000000000e+05
1.416190000000000000e+05
1.354810000000000000e+05
1.311830000000000000e+05
1.356410000000000000e+05
1.414170000000000000e+05
1.414530000000000000e+05
1.362560000000000000e+05
1.332830000000000000e+05
1.385630000000000000e+05
1.442160000000000000e+05
1.438840000000000000e+05
1.376820000000000000e+05
1.328870000000000000e+05
1.372040000000000000e+05
1.427140000000000000e+05
1.427390000000000000e+05
1.366560000000000000e+05
1.321160000000000000e+05
1.366750000000000000e+05
1.427710000000000000e+05
1.432280000000000000e+05
1.376010000000000000e+05
1.330790000000000000e+05
1.378700000000000000e+05
1.440210000000000000e+05
1.442310000000000000e+05
1.386690000000000000e+05
1.340790000000000000e+05
1.385110000000000000e+05
1.445930000000000000e+05
1.447840000000000000e+05
1.392360000000000000e+05
1.345430000000000000e+05
1.387300000000000000e+05
1.448140000000000000e+05
1.452700000000000000e+05
1.395710000000000000e+05
1.347260000000000000e+05
1.386930000000000000e+05
1.447360000000000000e+05
1.452260000000000000e+05
1.395340000000000000e+05
1.343610000000000000e+05
1.386260000000000000e+05
-3.310700000000000000e+04
-2.863000000000000000e+04
-2.335700000000000000e+04
-2.586700000000000000e+04
-3.191700000000000000e+04
-3.322500000000000000e+04
-2.879700000000000000e+04
-2.344100000000000000e+04
-2.577400000000000000e+04
-3.188100000000000000e+04
-3.321200000000000000e+04
-2.884700000000000000e+04
-2.338700000000000000e+04
-2.558300000000000000e+04
-3.172500000000000000e+04
-3.321300000000000000e+04
-2.893400000000000000e+04
-2.346100000000000000e+04
-2.557600000000000000e+04
-3.168900000000000000e+04
-3.325100000000000000e+04
-2.896300000000000000e+04
-2.321500000000000000e+04
-2.505600000000000000e+04
-3.116200000000000000e+04
-3.280600000000000000e+04
-2.863900000000000000e+04
-2.307400000000000000e+04
-2.516100000000000000e+04
-3.177200000000000000e+04
-3.396800000000000000e+04
-3.006900000000000000e+04
-2.437100000000000000e+04
-2.583900000000000000e+04
-3.192900000000000000e+04
-3.376100000000000000e+04
-2.971400000000000000e+04
-2.400500000000000000e+04
-2.542100000000000000e+04
-3.157700000000000000e+04
-3.359200000000000000e+04
-2.969900000000000000e+04
-2.405400000000000000e+04
-2.540400000000000000e+04
-3.157900000000000000e+04
-3.364900000000000000e+04
-2.982100000000000000e+04
-2.418700000000000000e+04
-2.540400000000000000e+04
-3.154100000000000000e+04
-3.369500000000000000e+04
-2.990200000000000000e+04
-2.420500000000000000e+04
-2.535600000000000000e+04
-3.159600000000000000e+04
-3.388900000000000000e+04
-3.024100000000000000e+04
-2.450000000000000000e+04
-2.539700000000000000e+04
-3.157100000000000000e+04
-3.386700000000000000e+04
-3.028100000000000000e+04
-2.460000000000000000e+04
-2.544900000000000000e+04
-3.167700000000000000e+04
-3.416300000000000000e+04
-3.060300000000000000e+04
-2.480100000000000000e+04
-2.544700000000000000e+04
-3.162500000000000000e+04
-3.418000000000000000e+04
-3.067200000000000000e+04
-2.476600000000000000e+04
-2.524900000000000000e+04
-3.143400000000000000e+04
-3.403000000000000000e+04
-3.067000000000000000e+04
-2.479900000000000000e+04
-2.520900000000000000e+04
-3.142700000000000000e+04
-3.415600000000000000e+04
-3.087200000000000000e+04
-2.490200000000000000e+04
-2.515200000000000000e+04
-3.136700000000000000e+04
-3.418200000000000000e+04
-3.095900000000000000e+04
-2.498100000000000000e+04
-2.502900000000000000e+04
-3.129900000000000000e+04
-3.429200000000000000e+04
-3.122600000000000000e+04
-2.526200000000000000e+04
-2.512100000000000000e+04
-3.133100000000000000e+04
-3.434500000000000000e+04
-3.128600000000000000e+04
-2.530100000000000000e+04
-2.510000000000000000e+04
-3.132900000000000000e+04
-3.448600000000000000e+04
-3.152100000000000000e+04
-2.552600000000000000e+04
-2.512800000000000000e+04
-3.128600000000000000e+04
-3.454600000000000000e+04
-3.172900000000000000e+04
-2.577400000000000000e+04
-2.522500000000000000e+04
-3.139100000000000000e+04
-3.484100000000000000e+04
-3.210800000000000000e+04
-2.620700000000000000e+04
-2.553100000000000000e+04
-3.168600000000000000e+04
-3.513300000000000000e+04
-3.236900000000000000e+04
-2.636600000000000000e+04
-2.557400000000000000e+04
-3.168000000000000000e+04
-3.518400000000000000e+04
-3.247200000000000000e+04
-2.647800000000000000e+04
-2.550600000000000000e+04
-3.161800000000000000e+04
-3.537000000000000000e+04
-3.290100000000000000e+04
-2.692700000000000000e+04
-2.583700000000000000e+04
-3.189900000000000000e+04
-3.561100000000000000e+04
-3.310900000000000000e+04
-2.708400000000000000e+04
-2.580400000000000000e+04
-3.178100000000000000e+04
-3.556400000000000000e+04
-3.327000000000000000e+04
-2.738700000000000000e+04
-2.606300000000000000e+04
-3.206800000000000000e+04
-3.596200000000000000e+04
-3.360400000000000000e+04
-2.767100000000000000e+04
-2.614700000000000000e+04
-3.205300000000000000e+04
-3.604900000000000000e+04
-3.385900000000000000e+04
-2.788400000000000000e+04
-2.626800000000000000e+04
-3.220500000000000000e+04
-3.627200000000000000e+04
-3.416500000000000000e+04
-2.825500000000000000e+04
-2.650300000000000000e+04
-3.235700000000000000e+04
-3.643300000000000000e+04
-3.428900000000000000e+04
-2.832300000000000000e+04
-2.646300000000000000e+04
-3.231600000000000000e+04
-3.652200000000000000e+04
-3.455400000000000000e+04
-2.868100000000000000e+04
-2.666200000000000000e+04
-3.248700000000000000e+04
-3.676100000000000000e+04
-3.494000000000000000e+04
-2.909400000000000000e+04
-2.693400000000000000e+04
-3.261900000000000000e+04
-3.704000000000000000e+04
-3.528900000000000000e+04
-2.940100000000000000e+04
-2.704700000000000000e+04
-3.270700000000000000e+04
-3.717900000000000000e+04
-3.558500000000000000e+04
-2.981700000000000000e+04
-2.742000000000000000e+04
-3.300000000000000000e+04
-3.742600000000000000e+04
-3.567100000000000000e+04
-2.972700000000000000e+04
-2.698900000000000000e+04
-3.232400000000000000e+04
-3.691900000000000000e+04
-3.561700000000000000e+04
-3.015600000000000000e+04
-2.793400000000000000e+04
-3.370000000000000000e+04
-3.832400000000000000e+04
-3.666800000000000000e+04
-3.073400000000000000e+04
-2.785100000000000000e+04
-3.315700000000000000e+04
-3.781200000000000000e+04
-3.649100000000000000e+04
-3.073700000000000000e+04
-2.784000000000000000e+04
-3.314600000000000000e+04
-3.799600000000000000e+04
-3.681800000000000000e+04
-3.112000000000000000e+04
-2.821600000000000000e+04
-3.350400000000000000e+04
-3.836400000000000000e+04
-3.725500000000000000e+04
-3.160200000000000000e+04
-2.845900000000000000e+04
-3.364400000000000000e+04
-3.862900000000000000e+04
-3.763700000000000000e+04
-3.191700000000000000e+04
-2.864600000000000000e+04
-3.374000000000000000e+04
-3.870600000000000000e+04
-3.784700000000000000e+04
-3.226900000000000000e+04
-2.888200000000000000e+04
-3.395600000000000000e+04
-3.892000000000000000e+04
-3.800700000000000000e+04
-3.249400000000000000e+04
-2.909500000000000000e+04
-3.404000000000000000e+04
-3.917500000000000000e+04
-3.838400000000000000e+04
-3.280100000000000000e+04
-2.929000000000000000e+04
-3.419400000000000000e+04
-3.933000000000000000e+04
-3.869200000000000000e+04
-3.306700000000000000e+04
-2.931100000000000000e+04
-3.413900000000000000e+04
-3.938300000000000000e+04
-3.886800000000000000e+04
-3.335600000000000000e+04
-2.957100000000000000e+04
-3.434000000000000000e+04
-3.960200000000000000e+04
-3.911600000000000000e+04
-3.368700000000000000e+04
-2.986700000000000000e+04
-3.451300000000000000e+04
-3.990300000000000000e+04
-3.962200000000000000e+04
-3.427600000000000000e+04
-3.023500000000000000e+04
-3.473700000000000000e+04
-4.010800000000000000e+04
-3.978600000000000000e+04
-3.442900000000000000e+04
-3.028600000000000000e+04
-3.470100000000000000e+04
-4.013900000000000000e+04
-3.995600000000000000e+04
-3.472200000000000000e+04
-3.052600000000000000e+04
-3.484100000000000000e+04
-4.035600000000000000e+04
-4.023800000000000000e+04
-3.503000000000000000e+04
-3.073600000000000000e+04
-3.501100000000000000e+04
-4.057900000000000000e+04
-4.057900000000000000e+04
-3.541500000000000000e+04
-3.101600000000000000e+04
-3.511600000000000000e+04
-4.076200000000000000e+04
-4.094400000000000000e+04
-3.576600000000000000e+04
-3.127700000000000000e+04
-3.531900000000000000e+04
-4.099800000000000000e+04
-4.108200000000000000e+04
-3.594100000000000000e+04
-3.137600000000000000e+04
-3.529800000000000000e+04
-4.102900000000000000e+04
-4.138900000000000000e+04
-3.634900000000000000e+04
-3.173500000000000000e+04
-3.555000000000000000e+04
-4.128800000000000000e+04
-4.165800000000000000e+04
-3.670400000000000000e+04
-3.204200000000000000e+04
-3.574300000000000000e+04
-4.153900000000000000e+04
-4.194600000000000000e+04
-3.700900000000000000e+04
-3.223600000000000000e+04
-3.589100000000000000e+04
-4.181300000000000000e+04
-4.237900000000000000e+04
-3.756400000000000000e+04
-3.272600000000000000e+04
-3.613300000000000000e+04
-4.199400000000000000e+04
-4.260300000000000000e+04
-3.772400000000000000e+04
-3.279000000000000000e+04
-3.620000000000000000e+04
-4.211600000000000000e+04
-4.290700000000000000e+04
-3.818100000000000000e+04
-3.309700000000000000e+04
-3.631000000000000000e+04
-4.232700000000000000e+04
-4.319300000000000000e+04
-3.847600000000000000e+04
-3.334300000000000000e+04
-3.642300000000000000e+04
-4.242600000000000000e+04
-4.334900000000000000e+04
-3.866300000000000000e+04
-3.342400000000000000e+04
-3.642700000000000000e+04
-4.250800000000000000e+04
-4.357600000000000000e+04
-3.903700000000000000e+04
-3.379000000000000000e+04
-3.662700000000000000e+04
-4.266200000000000000e+04
-4.377200000000000000e+04
-3.924600000000000000e+04
-3.401500000000000000e+04
-3.674400000000000000e+04
-4.289000000000000000e+04
-4.407600000000000000e+04
-3.962600000000000000e+04
-3.424600000000000000e+04
-3.682600000000000000e+04
-4.300700000000000000e+04
-4.438600000000000000e+04
-4.001900000000000000e+04
-3.455300000000000000e+04
-3.697300000000000000e+04
-4.301100000000000000e+04
-4.428700000000000000e+04
-3.988500000000000000e+04
-3.425000000000000000e+04
-3.656100000000000000e+04
-4.280300000000000000e+04
-4.451200000000000000e+04
-4.059400000000000000e+04
-3.557300000000000000e+04
-3.807500000000000000e+04
-4.418300000000000000e+04
-4.551600000000000000e+04
-4.111000000000000000e+04
-3.547200000000000000e+04
-3.743700000000000000e+04
-4.365600000000000000e+04
-4.529600000000000000e+04
-4.116700000000000000e+04
-3.555700000000000000e+04
-3.749500000000000000e+04
-4.383600000000000000e+04
-4.562600000000000000e+04
-4.146900000000000000e+04
-3.586600000000000000e+04
-3.765800000000000000e+04
-4.391100000000000000e+04
-4.576100000000000000e+04
-4.168200000000000000e+04
-3.604700000000000000e+04
-3.781100000000000000e+04
-4.414200000000000000e+04
-4.601300000000000000e+04
-4.202900000000000000e+04
-3.632900000000000000e+04
-3.785500000000000000e+04
-4.418700000000000000e+04
-4.621200000000000000e+04
-4.226000000000000000e+04
-3.657300000000000000e+04
-3.806300000000000000e+04
-4.438200000000000000e+04
-4.647300000000000000e+04
-4.259800000000000000e+04
-3.679600000000000000e+04
-3.808700000000000000e+04
-4.449700000000000000e+04
-4.675400000000000000e+04
-4.285900000000000000e+04
-3.700700000000000000e+04
-3.814700000000000000e+04
-4.444700000000000000e+04
-4.684000000000000000e+04
-4.313700000000000000e+04
-3.725800000000000000e+04
-3.827300000000000000e+04
-4.460800000000000000e+04
-4.696200000000000000e+04
-4.332300000000000000e+04
-3.750300000000000000e+04
-3.843600000000000000e+04
-4.483700000000000000e+04
-4.725200000000000000e+04
-4.361400000000000000e+04
-3.774800000000000000e+04
-3.850800000000000000e+04
-4.481400000000000000e+04
-4.727100000000000000e+04
-4.372500000000000000e+04
-3.777300000000000000e+04
-3.845200000000000000e+04
-4.477300000000000000e+04
-4.739100000000000000e+04
-4.393900000000000000e+04
-3.801900000000000000e+04
-3.849600000000000000e+04
-4.486400000000000000e+04
-4.759500000000000000e+04
-4.425100000000000000e+04
-3.822700000000000000e+04
-3.858400000000000000e+04
-4.509700000000000000e+04
-4.787600000000000000e+04
-4.457600000000000000e+04
-3.861500000000000000e+04
-3.875800000000000000e+04
-4.516200000000000000e+04
-4.807400000000000000e+04
-4.489200000000000000e+04
-3.887300000000000000e+04
-3.878700000000000000e+04
-4.508600000000000000e+04
-4.809800000000000000e+04
-4.499600000000000000e+04
-3.901200000000000000e+04
-3.886700000000000000e+04
-4.522600000000000000e+04
-4.837700000000000000e+04
-4.531800000000000000e+04
-3.929500000000000000e+04
-3.901300000000000000e+04
-4.536700000000000000e+04
-4.859900000000000000e+04
-4.558600000000000000e+04
-3.956800000000000000e+04
-3.914100000000000000e+04
-4.540600000000000000e+04
-4.856100000000000000e+04
-4.568000000000000000e+04
-3.970900000000000000e+04
-3.919000000000000000e+04
-4.544400000000000000e+04
-4.875700000000000000e+04
-4.584700000000000000e+04
-3.979300000000000000e+04
-3.911800000000000000e+04
-4.545700000000000000e+04
-4.891800000000000000e+04
-4.622400000000000000e+04
-4.023100000000000000e+04
-3.941600000000000000e+04
-4.565300000000000000e+04
-4.915900000000000000e+04
-4.652700000000000000e+04
-4.051000000000000000e+04
-3.950400000000000000e+04
-4.569100000000000000e+04
-4.929400000000000000e+04
-4.672000000000000000e+04
-4.072100000000000000e+04
-3.965600000000000000e+04
-4.581700000000000000e+04
-4.942400000000000000e+04
-4.696200000000000000e+04
-4.098200000000000000e+04
-3.964700000000000000e+04
-4.577200000000000000e+04
-4.951700000000000000e+04
-4.707000000000000000e+04
-4.115700000000000000e+04
-3.982100000000000000e+04
-4.597600000000000000e+04
-4.984200000000000000e+04
-4.754200000000000000e+04
-4.154200000000000000e+04
-3.992700000000000000e+04
-4.602900000000000000e+04
-4.993900000000000000e+04
-4.768800000000000000e+04
-4.166700000000000000e+04
-3.997100000000000000e+04
-4.599500000000000000e+04
-4.996500000000000000e+04
-4.782200000000000000e+04
-4.200700000000000000e+04
-4.026400000000000000e+04
-4.620600000000000000e+04
-5.017700000000000000e+04
-4.800200000000000000e+04
-4.186000000000000000e+04
-3.977400000000000000e+04
-4.558200000000000000e+04
-4.958600000000000000e+04
-4.751700000000000000e+04
-4.166300000000000000e+04
-3.984700000000000000e+04
-4.612700000000000000e+04
-5.091600000000000000e+04
-4.920200000000000000e+04
-4.314200000000000000e+04
-4.071300000000000000e+04
-4.635800000000000000e+04
-5.066100000000000000e+04
-4.874600000000000000e+04
-4.278900000000000000e+04
-4.047700000000000000e+04
-4.621200000000000000e+04
-5.063600000000000000e+04
-4.893700000000000000e+04
-4.306800000000000000e+04
-4.057700000000000000e+04
-4.624200000000000000e+04
-5.070400000000000000e+04
-4.902700000000000000e+04
-4.316700000000000000e+04
-4.060700000000000000e+04
-4.620800000000000000e+04
-5.080700000000000000e+04
-4.931600000000000000e+04
-4.355600000000000000e+04
-4.081200000000000000e+04
-4.639200000000000000e+04
-5.102800000000000000e+04
-4.951500000000000000e+04
-4.371600000000000000e+04
-4.087900000000000000e+04
-4.629200000000000000e+04
-5.098500000000000000e+04
-4.964200000000000000e+04
-4.386400000000000000e+04
-4.091300000000000000e+04
-4.638600000000000000e+04
-5.119300000000000000e+04
-4.981900000000000000e+04
-4.408300000000000000e+04
-4.101200000000000000e+04
-4.629400000000000000e+04
-5.116400000000000000e+04
-5.003600000000000000e+04
-4.434900000000000000e+04
-4.118700000000000000e+04
-4.639800000000000000e+04
-5.131400000000000000e+04
-5.019400000000000000e+04
-4.450000000000000000e+04
-4.121400000000000000e+04
-4.634200000000000000e+04
-5.127700000000000000e+04
-5.028400000000000000e+04
-4.468900000000000000e+04
-4.128400000000000000e+04
-4.630500000000000000e+04
-5.135400000000000000e+04
-5.042900000000000000e+04
-4.481100000000000000e+04
-4.127400000000000000e+04
-4.623300000000000000e+04
-5.128200000000000000e+04
-5.047000000000000000e+04
-4.494200000000000000e+04
-4.129600000000000000e+04
-4.626900000000000000e+04
-5.146800000000000000e+04
-5.078800000000000000e+04
-4.530300000000000000e+04
-4.159000000000000000e+04
-4.646800000000000000e+04
-5.170700000000000000e+04
-5.112600000000000000e+04
-4.570600000000000000e+04
-4.182800000000000000e+04
-4.656500000000000000e+04
-5.185000000000000000e+04
-5.128400000000000000e+04
-4.583800000000000000e+04
-4.179900000000000000e+04
-4.643100000000000000e+04
-5.183000000000000000e+04
-5.146800000000000000e+04
-4.614400000000000000e+04
-4.197600000000000000e+04
-4.645900000000000000e+04
-5.186400000000000000e+04
-5.155500000000000000e+04
-4.622800000000000000e+04
-4.200800000000000000e+04
-4.645500000000000000e+04
-5.188100000000000000e+04
-5.166900000000000000e+04
-4.647400000000000000e+04
-4.217100000000000000e+04
-4.651800000000000000e+04
-5.198900000000000000e+04
-5.181400000000000000e+04
-4.662100000000000000e+04
-4.220200000000000000e+04
-4.643300000000000000e+04
-5.198900000000000000e+04
-5.197300000000000000e+04
-4.679700000000000000e+04
-4.234300000000000000e+04
-4.647900000000000000e+04
-5.204000000000000000e+04
-5.203200000000000000e+04
-4.689700000000000000e+04
-4.231200000000000000e+04
-4.636400000000000000e+04
-5.205900000000000000e+04
-5.230600000000000000e+04
-4.726600000000000000e+04
-4.258700000000000000e+04
-4.648300000000000000e+04
-5.227700000000000000e+04
-5.249900000000000000e+04
-4.739700000000000000e+04
-4.266400000000000000e+04
-4.641600000000000000e+04
-5.213400000000000000e+04
-5.250100000000000000e+04
-4.752200000000000000e+04
-4.271200000000000000e+04
-4.633600000000000000e+04
-5.222100000000000000e+04
-5.269100000000000000e+04
-4.778700000000000000e+04
-4.288800000000000000e+04
-4.644700000000000000e+04
-5.231600000000000000e+04
-5.283800000000000000e+04
-4.790600000000000000e+04
-4.299200000000000000e+04
-4.641300000000000000e+04
-5.227600000000000000e+04
-5.294700000000000000e+04
-4.808600000000000000e+04
-4.303200000000000000e+04
-4.636400000000000000e+04
-5.229900000000000000e+04
-5.301900000000000000e+04
-4.828300000000000000e+04
-4.321800000000000000e+04
-4.638900000000000000e+04
-5.243200000000000000e+04
-5.327500000000000000e+04
-4.856900000000000000e+04
-4.331400000000000000e+04
-4.628900000000000000e+04
-5.222600000000000000e+04
-5.280100000000000000e+04
-4.775900000000000000e+04
-4.198600000000000000e+04
-4.453600000000000000e+04
-5.083100000000000000e+04
-5.163100000000000000e+04
-4.796400000000000000e+04
-4.373400000000000000e+04
-4.748900000000000000e+04
-5.347000000000000000e+04
-5.407600000000000000e+04
-4.943700000000000000e+04
-4.448700000000000000e+04
-4.693100000000000000e+04
-5.273900000000000000e+04
-5.371000000000000000e+04
-4.891600000000000000e+04
-4.316100000000000000e+04
-4.541200000000000000e+04
-5.151200000000000000e+04
-5.258600000000000000e+04
-4.805500000000000000e+04
-4.249200000000000000e+04
-4.389100000000000000e+04
-4.956900000000000000e+04
-5.149700000000000000e+04
-4.700100000000000000e+04
-4.123100000000000000e+04
-4.236800000000000000e+04
-4.784500000000000000e+04
-4.955400000000000000e+04
-4.537100000000000000e+04
-3.857400000000000000e+04
-4.162100000000000000e+04
-4.781100000000000000e+04
-4.783600000000000000e+04
-4.296400000000000000e+04
-3.778900000000000000e+04
-3.842900000000000000e+04
-4.388700000000000000e+04
-4.594700000000000000e+04
-4.170600000000000000e+04
-3.630600000000000000e+04
-3.775400000000000000e+04
-4.228300000000000000e+04
-4.264300000000000000e+04
-3.608600000000000000e+04
-2.978400000000000000e+04
-3.124200000000000000e+04
-3.413300000000000000e+04
-3.399700000000000000e+04
-2.842500000000000000e+04
-2.037600000000000000e+04
-1.844300000000000000e+04
-2.310800000000000000e+04
-2.314500000000000000e+04
-1.541400000000000000e+04
-7.289000000000000000e+03
-5.769000000000000000e+03
-6.514000000000000000e+03
-4.765000000000000000e+03
3.994000000000000000e+03
1.382800000000000000e+04
1.413000000000000000e+04
1.194600000000000000e+04
1.255500000000000000e+04
1.850900000000000000e+04
2.522100000000000000e+04
2.834800000000000000e+04
2.566100000000000000e+04
2.639100000000000000e+04
3.412800000000000000e+04
4.139500000000000000e+04
4.178700000000000000e+04
3.906600000000000000e+04
3.822900000000000000e+04
4.140100000000000000e+04
4.957600000000000000e+04
5.102300000000000000e+04
4.687100000000000000e+04
4.670900000000000000e+04
5.015600000000000000e+04
5.685200000000000000e+04
5.571400000000000000e+04
5.203900000000000000e+04
5.036300000000000000e+04
5.489400000000000000e+04
6.033900000000000000e+04
5.996900000000000000e+04
5.572800000000000000e+04
5.311700000000000000e+04
5.617800000000000000e+04
6.057800000000000000e+04
6.069100000000000000e+04
5.658300000000000000e+04
5.377300000000000000e+04
5.645600000000000000e+04
6.078300000000000000e+04
6.091700000000000000e+04
5.579300000000000000e+04
5.350900000000000000e+04
5.682900000000000000e+04
6.192600000000000000e+04
6.181200000000000000e+04
5.678400000000000000e+04
5.483900000000000000e+04
5.731100000000000000e+04
6.244900000000000000e+04
6.362700000000000000e+04
5.932100000000000000e+04
5.733900000000000000e+04
6.022000000000000000e+04
6.482100000000000000e+04
6.643300000000000000e+04
6.022500000000000000e+04
5.802100000000000000e+04
6.246600000000000000e+04
6.666200000000000000e+04
6.633700000000000000e+04
6.278100000000000000e+04
5.995100000000000000e+04
6.274000000000000000e+04
6.717400000000000000e+04
6.807800000000000000e+04
6.388600000000000000e+04
6.128400000000000000e+04
6.341600000000000000e+04
6.759200000000000000e+04
6.855300000000000000e+04
6.480200000000000000e+04
6.183600000000000000e+04
6.377900000000000000e+04
6.869400000000000000e+04
7.005500000000000000e+04
6.524400000000000000e+04
6.276000000000000000e+04
6.505200000000000000e+04
7.046200000000000000e+04
7.145300000000000000e+04
6.647400000000000000e+04
6.334900000000000000e+04
6.533400000000000000e+04
7.036200000000000000e+04
7.126200000000000000e+04
6.636500000000000000e+04
6.386500000000000000e+04
6.609300000000000000e+04
7.055100000000000000e+04
7.168600000000000000e+04
6.762100000000000000e+04
6.490000000000000000e+04
6.704600000000000000e+04
7.190400000000000000e+04
7.330000000000000000e+04
6.876900000000000000e+04
6.635900000000000000e+04
6.793900000000000000e+04
7.255800000000000000e+04
7.407200000000000000e+04
6.986800000000000000e+04
6.697700000000000000e+04
6.881500000000000000e+04
7.351300000000000000e+04
7.468100000000000000e+04
7.011600000000000000e+04
6.690600000000000000e+04
6.835300000000000000e+04
7.226100000000000000e+04
7.313100000000000000e+04
6.875300000000000000e+04
6.545100000000000000e+04
6.648900000000000000e+04
7.031600000000000000e+04
7.062700000000000000e+04
6.491400000000000000e+04
5.997700000000000000e+04
6.033000000000000000e+04
6.242600000000000000e+04
6.226000000000000000e+04
5.521100000000000000e+04
4.954300000000000000e+04
4.905700000000000000e+04
5.148200000000000000e+04
5.096500000000000000e+04
4.437500000000000000e+04
3.885400000000000000e+04
3.866800000000000000e+04
4.086900000000000000e+04
3.991400000000000000e+04
3.201600000000000000e+04
2.786400000000000000e+04
2.659100000000000000e+04
2.749100000000000000e+04
2.735800000000000000e+04
2.179000000000000000e+04
1.687600000000000000e+04
1.665000000000000000e+04
2.026400000000000000e+04
2.149100000000000000e+04
1.629300000000000000e+04
1.193600000000000000e+04
1.255600000000000000e+04
1.669500000000000000e+04
1.862000000000000000e+04
1.404500000000000000e+04
1.016400000000000000e+04
1.134800000000000000e+04
1.615100000000000000e+04
1.870000000000000000e+04
1.461200000000000000e+04
1.129600000000000000e+04
1.287700000000000000e+04
1.808200000000000000e+04
2.121600000000000000e+04
1.773400000000000000e+04
1.483600000000000000e+04
1.689300000000000000e+04
2.267000000000000000e+04
2.644300000000000000e+04
2.352500000000000000e+04
2.106600000000000000e+04
2.338400000000000000e+04
2.955000000000000000e+04
3.391700000000000000e+04
3.140200000000000000e+04
2.937500000000000000e+04
3.234800000000000000e+04
3.893100000000000000e+04
4.360000000000000000e+04
4.155100000000000000e+04
3.966100000000000000e+04
4.238000000000000000e+04
4.858600000000000000e+04
5.298900000000000000e+04
5.051900000000000000e+04
4.798400000000000000e+04
4.988300000000000000e+04
5.513300000000000000e+04
5.859600000000000000e+04
5.525100000000000000e+04
5.156100000000000000e+04
5.223900000000000000e+04
5.638000000000000000e+04
5.899900000000000000e+04
5.472900000000000000e+04
5.012800000000000000e+04
5.008700000000000000e+04
5.353500000000000000e+04
5.549500000000000000e+04
5.078100000000000000e+04
4.571800000000000000e+04
4.507400000000000000e+04
4.809600000000000000e+04
4.992900000000000000e+04
4.507000000000000000e+04
3.975700000000000000e+04
3.883800000000000000e+04
4.170400000000000000e+04
4.345700000000000000e+04
3.853800000000000000e+04
3.309400000000000000e+04
3.205800000000000000e+04
3.491400000000000000e+04
3.688300000000000000e+04
3.210900000000000000e+04
2.651300000000000000e+04
2.548000000000000000e+04
2.862800000000000000e+04
3.110600000000000000e+04
2.694800000000000000e+04
2.185600000000000000e+04
2.113400000000000000e+04
2.430600000000000000e+04
2.685300000000000000e+04
2.275100000000000000e+04
1.767600000000000000e+04
1.705000000000000000e+04
2.049300000000000000e+04
2.340100000000000000e+04
1.961900000000000000e+04
1.458400000000000000e+04
1.391500000000000000e+04
1.740400000000000000e+04
2.049600000000000000e+04
1.688600000000000000e+04
1.185400000000000000e+04
1.118600000000000000e+04
1.469300000000000000e+04
1.791400000000000000e+04
1.464200000000000000e+04
9.882000000000000000e+03
9.406000000000000000e+03
1.303700000000000000e+04
1.645900000000000000e+04
1.325700000000000000e+04
8.497000000000000000e+03
8.048000000000000000e+03
1.166600000000000000e+04
1.525600000000000000e+04
1.232900000000000000e+04
7.708000000000000000e+03
7.284000000000000000e+03
1.103800000000000000e+04
1.483300000000000000e+04
1.212100000000000000e+04
7.533000000000000000e+03
7.133000000000000000e+03
1.099900000000000000e+04
1.498400000000000000e+04
1.243500000000000000e+04
7.955000000000000000e+03
7.576000000000000000e+03
1.148200000000000000e+04
1.560000000000000000e+04
1.326000000000000000e+04
8.937000000000000000e+03
8.584000000000000000e+03
1.253200000000000000e+04
1.681300000000000000e+04
1.473300000000000000e+04
1.052100000000000000e+04
1.016400000000000000e+04
1.397000000000000000e+04
1.802700000000000000e+04
1.570200000000000000e+04
1.101300000000000000e+04
1.034800000000000000e+04
1.409400000000000000e+04
1.835900000000000000e+04
1.634900000000000000e+04
1.199800000000000000e+04
1.141500000000000000e+04
1.496600000000000000e+04
1.906000000000000000e+04
1.706200000000000000e+04
1.246000000000000000e+04
1.152700000000000000e+04
1.493100000000000000e+04
1.899400000000000000e+04
1.699800000000000000e+04
1.226100000000000000e+04
1.121600000000000000e+04
1.453800000000000000e+04
1.854700000000000000e+04
1.647300000000000000e+04
1.163300000000000000e+04
1.053400000000000000e+04
1.373800000000000000e+04
1.770600000000000000e+04
1.573100000000000000e+04
1.086100000000000000e+04
9.646000000000000000e+03
1.282900000000000000e+04
1.685300000000000000e+04
1.497200000000000000e+04
1.004500000000000000e+04
8.678000000000000000e+03
1.177400000000000000e+04
1.584300000000000000e+04
1.410600000000000000e+04
9.100000000000000000e+03
7.645000000000000000e+03
1.073600000000000000e+04
1.485000000000000000e+04
1.322400000000000000e+04
8.293000000000000000e+03
6.753000000000000000e+03
9.706000000000000000e+03
1.382700000000000000e+04
1.234200000000000000e+04
7.474000000000000000e+03
5.961000000000000000e+03
8.926000000000000000e+03
1.315600000000000000e+04
1.180800000000000000e+04
6.906000000000000000e+03
5.342000000000000000e+03
8.339000000000000000e+03
1.262000000000000000e+04
1.144300000000000000e+04
6.574000000000000000e+03
4.896000000000000000e+03
7.784000000000000000e+03
1.206000000000000000e+04
1.096700000000000000e+04
6.214000000000000000e+03
4.581000000000000000e+03
7.492000000000000000e+03
1.187200000000000000e+04
1.096900000000000000e+04
6.201000000000000000e+03
4.469000000000000000e+03
7.274000000000000000e+03
1.172300000000000000e+04
1.095800000000000000e+04
6.226000000000000000e+03
4.478000000000000000e+03
7.347000000000000000e+03
1.179700000000000000e+04
1.114300000000000000e+04
6.398000000000000000e+03
4.654000000000000000e+03
7.397000000000000000e+03
1.178300000000000000e+04
1.124400000000000000e+04
6.523000000000000000e+03
4.640000000000000000e+03
7.366000000000000000e+03
1.178200000000000000e+04
1.128800000000000000e+04
6.555000000000000000e+03
4.632000000000000000e+03
7.238000000000000000e+03
1.165400000000000000e+04
1.128600000000000000e+04
6.566000000000000000e+03
4.524000000000000000e+03
7.058000000000000000e+03
1.158300000000000000e+04
1.136700000000000000e+04
6.563000000000000000e+03
4.398000000000000000e+03
6.919000000000000000e+03
1.142500000000000000e+04
1.121500000000000000e+04
6.521000000000000000e+03
4.347000000000000000e+03
6.766000000000000000e+03
1.126300000000000000e+04
1.128600000000000000e+04
6.509000000000000000e+03
4.144000000000000000e+03
6.428000000000000000e+03
1.094700000000000000e+04
1.108900000000000000e+04
6.376000000000000000e+03
4.013000000000000000e+03
6.198000000000000000e+03
1.065600000000000000e+04
1.085200000000000000e+04
6.113000000000000000e+03
3.683000000000000000e+03
5.853000000000000000e+03
1.031300000000000000e+04
1.057300000000000000e+04
5.919000000000000000e+03
3.433000000000000000e+03
5.557000000000000000e+03
1.000000000000000000e+04
1.043400000000000000e+04
5.811000000000000000e+03
3.270000000000000000e+03
5.264000000000000000e+03
9.683000000000000000e+03
1.020300000000000000e+04
5.550000000000000000e+03
2.958000000000000000e+03
4.928000000000000000e+03
9.358000000000000000e+03
1.002600000000000000e+04
5.462000000000000000e+03
2.838000000000000000e+03
4.783000000000000000e+03
9.239000000000000000e+03
9.961000000000000000e+03
5.299000000000000000e+03
2.528000000000000000e+03
4.426000000000000000e+03
8.819000000000000000e+03
9.674000000000000000e+03
5.086000000000000000e+03
2.269000000000000000e+03
4.010000000000000000e+03
8.428000000000000000e+03
9.458000000000000000e+03
5.029000000000000000e+03
2.245000000000000000e+03
4.001000000000000000e+03
8.453000000000000000e+03
9.535000000000000000e+03
4.992000000000000000e+03
1.864000000000000000e+03
3.237000000000000000e+03
7.394000000000000000e+03
8.544000000000000000e+03
4.238000000000000000e+03
1.362000000000000000e+03
3.005000000000000000e+03
7.429000000000000000e+03
8.747000000000000000e+03
4.306000000000000000e+03
1.201000000000000000e+03
2.717000000000000000e+03
7.088000000000000000e+03
8.458000000000000000e+03
4.106000000000000000e+03
1.028000000000000000e+03
2.478000000000000000e+03
6.888000000000000000e+03
8.373000000000000000e+03
4.046000000000000000e+03
8.380000000000000000e+02
2.168000000000000000e+03
6.507000000000000000e+03
8.114000000000000000e+03
3.825000000000000000e+03
6.930000000000000000e+02
2.089000000000000000e+03
6.411000000000000000e+03
8.087000000000000000e+03
3.878000000000000000e+03
6.090000000000000000e+02
1.928000000000000000e+03
6.287000000000000000e+03
8.025000000000000000e+03
3.914000000000000000e+03
6.380000000000000000e+02
1.843000000000000000e+03
6.154000000000000000e+03
8.103000000000000000e+03
3.967000000000000000e+03
6.420000000000000000e+02
1.814000000000000000e+03
6.148000000000000000e+03
8.109000000000000000e+03
4.087000000000000000e+03
6.830000000000000000e+02
1.784000000000000000e+03
6.066000000000000000e+03
8.150000000000000000e+03
4.219000000000000000e+03
8.390000000000000000e+02
1.838000000000000000e+03
6.079000000000000000e+03
8.249000000000000000e+03
4.361000000000000000e+03
8.850000000000000000e+02
1.831000000000000000e+03
6.073000000000000000e+03
8.353000000000000000e+03
4.558000000000000000e+03
9.840000000000000000e+02
1.839000000000000000e+03
6.055000000000000000e+03
8.405000000000000000e+03
4.554000000000000000e+03
9.310000000000000000e+02
1.763000000000000000e+03
5.958000000000000000e+03
8.376000000000000000e+03
4.601000000000000000e+03
9.290000000000000000e+02
1.628000000000000000e+03
5.789000000000000000e+03
8.256000000000000000e+03
4.554000000000000000e+03
9.490000000000000000e+02
1.630000000000000000e+03
5.688000000000000000e+03
8.301000000000000000e+03
4.715000000000000000e+03
1.079000000000000000e+03
1.659000000000000000e+03
5.699000000000000000e+03
8.348000000000000000e+03
4.816000000000000000e+03
1.044000000000000000e+03
1.548000000000000000e+03
5.579000000000000000e+03
8.331000000000000000e+03
4.805000000000000000e+03
9.780000000000000000e+02
1.420000000000000000e+03
5.441000000000000000e+03
8.303000000000000000e+03
4.928000000000000000e+03
1.153000000000000000e+03
1.559000000000000000e+03
5.534000000000000000e+03
8.459000000000000000e+03
5.119000000000000000e+03
1.251000000000000000e+03
1.563000000000000000e+03
5.406000000000000000e+03
8.363000000000000000e+03
5.183000000000000000e+03
1.266000000000000000e+03
1.441000000000000000e+03
5.281000000000000000e+03
8.321000000000000000e+03
5.168000000000000000e+03
1.223000000000000000e+03
1.343000000000000000e+03
5.139000000000000000e+03
8.246000000000000000e+03
5.133000000000000000e+03
1.173000000000000000e+03
1.276000000000000000e+03
5.068000000000000000e+03
8.223000000000000000e+03
5.191000000000000000e+03
1.165000000000000000e+03
1.154000000000000000e+03
4.833000000000000000e+03
8.041000000000000000e+03
5.109000000000000000e+03
1.024000000000000000e+03
9.430000000000000000e+02
4.574000000000000000e+03
7.811000000000000000e+03
4.982000000000000000e+03
8.560000000000000000e+02
6.310000000000000000e+02
4.200000000000000000e+03
7.426000000000000000e+03
4.708000000000000000e+03
5.860000000000000000e+02
3.510000000000000000e+02
3.949000000000000000e+03
7.304000000000000000e+03
4.680000000000000000e+03
5.340000000000000000e+02
2.060000000000000000e+02
3.711000000000000000e+03
7.156000000000000000e+03
4.587000000000000000e+03
4.380000000000000000e+02
1.400000000000000000e+01
3.439000000000000000e+03
6.974000000000000000e+03
4.532000000000000000e+03
3.710000000000000000e+02
1.500000000000000000e+01
3.550000000000000000e+03
7.146000000000000000e+03
4.829000000000000000e+03
6.670000000000000000e+02
1.070000000000000000e+02
3.434000000000000000e+03
6.878000000000000000e+03
4.281000000000000000e+03
-2.760000000000000000e+02
-9.590000000000000000e+02
2.478000000000000000e+03
6.298000000000000000e+03
4.225000000000000000e+03
6.400000000000000000e+01
-5.390000000000000000e+02
2.777000000000000000e+03
6.351000000000000000e+03
4.232000000000000000e+03
-7.800000000000000000e+01
-7.970000000000000000e+02
2.471000000000000000e+03
6.211000000000000000e+03
4.220000000000000000e+03
-9.600000000000000000e+01
-9.310000000000000000e+02
2.224000000000000000e+03
5.979000000000000000e+03
4.069000000000000000e+03
-2.660000000000000000e+02
-1.156000000000000000e+03
2.004000000000000000e+03
5.771000000000000000e+03
4.004000000000000000e+03
-3.070000000000000000e+02
-1.267000000000000000e+03
1.818000000000000000e+03
5.608000000000000000e+03
3.896000000000000000e+03
-4.800000000000000000e+02
-1.529000000000000000e+03
1.570000000000000000e+03
5.396000000000000000e+03
3.786000000000000000e+03
-5.450000000000000000e+02
-1.601000000000000000e+03
1.404000000000000000e+03
5.268000000000000000e+03
3.755000000000000000e+03
-6.460000000000000000e+02
-1.794000000000000000e+03
1.142000000000000000e+03
5.096000000000000000e+03
3.695000000000000000e+03
-7.310000000000000000e+02
-1.949000000000000000e+03
8.860000000000000000e+02
4.775000000000000000e+03
3.426000000000000000e+03
-9.720000000000000000e+02
-2.261000000000000000e+03
5.930000000000000000e+02
4.577000000000000000e+03
3.357000000000000000e+03
-1.043000000000000000e+03
-2.386000000000000000e+03
4.070000000000000000e+02
4.336000000000000000e+03
3.220000000000000000e+03
-1.171000000000000000e+03
-2.593000000000000000e+03
1.270000000000000000e+02
4.089000000000000000e+03
3.098000000000000000e+03
-1.261000000000000000e+03
-2.757000000000000000e+03
-1.330000000000000000e+02
3.838000000000000000e+03
2.953000000000000000e+03
-1.476000000000000000e+03
-3.102000000000000000e+03
-5.440000000000000000e+02
3.481000000000000000e+03
2.692000000000000000e+03
-1.697000000000000000e+03
-3.324000000000000000e+03
-7.990000000000000000e+02
3.248000000000000000e+03
2.561000000000000000e+03
-1.839000000000000000e+03
-3.505000000000000000e+03
-1.028000000000000000e+03
3.019000000000000000e+03
2.451000000000000000e+03
-1.951000000000000000e+03
-3.670000000000000000e+03
-1.222000000000000000e+03
2.831000000000000000e+03
2.354000000000000000e+03
-2.082000000000000000e+03
-3.916000000000000000e+03
-1.537000000000000000e+03
2.584000000000000000e+03
2.269000000000000000e+03
-2.126000000000000000e+03
-3.956000000000000000e+03
-1.609000000000000000e+03
2.488000000000000000e+03
2.233000000000000000e+03
-2.159000000000000000e+03
-4.087000000000000000e+03
-1.806000000000000000e+03
2.288000000000000000e+03
2.077000000000000000e+03
-2.336000000000000000e+03
-4.341000000000000000e+03
-2.150000000000000000e+03
1.916000000000000000e+03
1.839000000000000000e+03
-2.618000000000000000e+03
-4.733000000000000000e+03
-2.571000000000000000e+03
1.594000000000000000e+03
1.655000000000000000e+03
-2.666000000000000000e+03
-4.760000000000000000e+03
-2.696000000000000000e+03
1.386000000000000000e+03
1.563000000000000000e+03
-2.805000000000000000e+03
-4.975000000000000000e+03
-2.961000000000000000e+03
1.098000000000000000e+03
1.398000000000000000e+03
-2.876000000000000000e+03
-5.104000000000000000e+03
-3.151000000000000000e+03
9.790000000000000000e+02
1.398000000000000000e+03
-2.908000000000000000e+03
-5.283000000000000000e+03
-3.439000000000000000e+03
6.640000000000000000e+02
1.168000000000000000e+03
-3.061000000000000000e+03
-5.406000000000000000e+03
-3.577000000000000000e+03
5.110000000000000000e+02
1.039000000000000000e+03
-3.237000000000000000e+03
-5.701000000000000000e+03
-3.919000000000000000e+03
1.630000000000000000e+02
8.090000000000000000e+02
-3.398000000000000000e+03
-5.912000000000000000e+03
-4.251000000000000000e+03
-1.920000000000000000e+02
6.090000000000000000e+02
-3.600000000000000000e+03
-6.136000000000000000e+03
-4.423000000000000000e+03
-2.920000000000000000e+02
5.630000000000000000e+02
-3.679000000000000000e+03
-6.376000000000000000e+03
-5.044000000000000000e+03
-1.260000000000000000e+03
-4.020000000000000000e+02
-4.470000000000000000e+03
-7.039000000000000000e+03
-5.428000000000000000e+03
-1.324000000000000000e+03
-2.110000000000000000e+02
-4.348000000000000000e+03
-7.035000000000000000e+03
-5.513000000000000000e+03
-1.485000000000000000e+03
-3.470000000000000000e+02
-4.458000000000000000e+03
-7.202000000000000000e+03
-5.822000000000000000e+03
-1.794000000000000000e+03
-5.110000000000000000e+02
-4.540000000000000000e+03
-7.349000000000000000e+03
-5.999000000000000000e+03
-1.957000000000000000e+03
-5.440000000000000000e+02
-4.577000000000000000e+03
-7.407000000000000000e+03
-6.041000000000000000e+03
-2.113000000000000000e+03
-6.790000000000000000e+02
-4.596000000000000000e+03
-7.471000000000000000e+03
-6.241000000000000000e+03
-2.306000000000000000e+03
-8.290000000000000000e+02
-4.785000000000000000e+03
-7.704000000000000000e+03
-6.532000000000000000e+03
-2.572000000000000000e+03
-9.460000000000000000e+02
-4.836000000000000000e+03
-7.834000000000000000e+03
-6.736000000000000000e+03
-2.850000000000000000e+03
-1.170000000000000000e+03
-5.021000000000000000e+03
-8.048000000000000000e+03
-6.944000000000000000e+03
-3.042000000000000000e+03
-1.256000000000000000e+03
-5.093000000000000000e+03
-8.208000000000000000e+03
-7.221000000000000000e+03
-3.348000000000000000e+03
-1.434000000000000000e+03
-5.107000000000000000e+03
-8.189000000000000000e+03
-7.246000000000000000e+03
-3.363000000000000000e+03
-1.396000000000000000e+03
-5.069000000000000000e+03
-8.271000000000000000e+03
-7.457000000000000000e+03
-3.666000000000000000e+03
-1.585000000000000000e+03
-5.253000000000000000e+03
-8.607000000000000000e+03
-7.792000000000000000e+03
-3.941000000000000000e+03
-1.824000000000000000e+03
-5.381000000000000000e+03
-8.651000000000000000e+03
-7.939000000000000000e+03
-4.165000000000000000e+03
-2.002000000000000000e+03
-5.546000000000000000e+03
-8.855000000000000000e+03
-8.184000000000000000e+03
-4.381000000000000000e+03
-2.024000000000000000e+03
-5.480000000000000000e+03
-8.894000000000000000e+03
-8.280000000000000000e+03
-4.496000000000000000e+03
-2.131000000000000000e+03
-5.562000000000000000e+03
-8.977000000000000000e+03
-8.409000000000000000e+03
-4.657000000000000000e+03
-2.169000000000000000e+03
-5.459000000000000000e+03
-8.873000000000000000e+03
-8.386000000000000000e+03
-4.704000000000000000e+03
-2.228000000000000000e+03
-5.512000000000000000e+03
-8.971000000000000000e+03
-8.557000000000000000e+03
-4.942000000000000000e+03
-2.375000000000000000e+03
-5.542000000000000000e+03
-9.037000000000000000e+03
-8.691000000000000000e+03
-5.099000000000000000e+03
-2.393000000000000000e+03
-5.480000000000000000e+03
-9.019000000000000000e+03
-8.813000000000000000e+03
-5.305000000000000000e+03
-2.584000000000000000e+03
-5.602000000000000000e+03
-9.182000000000000000e+03
-9.041000000000000000e+03
-5.567000000000000000e+03
-2.752000000000000000e+03
-5.636000000000000000e+03
-9.202000000000000000e+03
-9.062000000000000000e+03
-5.536000000000000000e+03
-2.674000000000000000e+03
-5.622000000000000000e+03
-9.329000000000000000e+03
-9.227000000000000000e+03
-5.761000000000000000e+03
-2.832000000000000000e+03
-5.633000000000000000e+03
-9.286000000000000000e+03
-9.196000000000000000e+03
-5.744000000000000000e+03
-2.789000000000000000e+03
-5.507000000000000000e+03
-9.239000000000000000e+03
-9.221000000000000000e+03
-5.853000000000000000e+03
-2.846000000000000000e+03
-5.513000000000000000e+03
-9.306000000000000000e+03
-9.458000000000000000e+03
-6.199000000000000000e+03
-3.080000000000000000e+03
-5.601000000000000000e+03
-9.352000000000000000e+03
-9.523000000000000000e+03
-6.252000000000000000e+03
-3.101000000000000000e+03
-5.546000000000000000e+03
-9.339000000000000000e+03
-9.642000000000000000e+03
-6.488000000000000000e+03
-3.390000000000000000e+03
-5.776000000000000000e+03
-9.561000000000000000e+03
-9.811000000000000000e+03
-6.575000000000000000e+03
-3.340000000000000000e+03
-5.536000000000000000e+03
-9.303000000000000000e+03
-9.711000000000000000e+03
-6.679000000000000000e+03
-3.600000000000000000e+03
-6.065000000000000000e+03
-1.012200000000000000e+04
-1.055100000000000000e+04
-7.350000000000000000e+03
-3.957000000000000000e+03
-6.015000000000000000e+03
-9.840000000000000000e+03
-1.030900000000000000e+04
-7.249000000000000000e+03
-3.850000000000000000e+03
-5.826000000000000000e+03
-9.727000000000000000e+03
-1.037200000000000000e+04
-7.415000000000000000e+03
-4.045000000000000000e+03
-6.002000000000000000e+03
-9.937000000000000000e+03
-1.056400000000000000e+04
-7.561000000000000000e+03
-4.091000000000000000e+03
-5.957000000000000000e+03
-9.899000000000000000e+03
-1.059100000000000000e+04
-7.684000000000000000e+03
-4.220000000000000000e+03
-5.966000000000000000e+03
-9.968000000000000000e+03
-1.073500000000000000e+04
-7.945000000000000000e+03
-4.406000000000000000e+03
-6.066000000000000000e+03
-1.010300000000000000e+04
-1.094100000000000000e+04
-8.097000000000000000e+03
-4.569000000000000000e+03
-6.168000000000000000e+03
-1.016100000000000000e+04
-1.106900000000000000e+04
-8.300000000000000000e+03
-4.730000000000000000e+03
-6.236000000000000000e+03
-1.029600000000000000e+04
-1.127900000000000000e+04
-8.602000000000000000e+03
-5.062000000000000000e+03
-6.446000000000000000e+03
-1.048000000000000000e+04
-1.148700000000000000e+04
-8.806000000000000000e+03
-5.210000000000000000e+03
-6.512000000000000000e+03
-1.056100000000000000e+04
-1.164100000000000000e+04
-9.007000000000000000e+03
-5.386000000000000000e+03
-6.577000000000000000e+03
-1.057100000000000000e+04
-1.165700000000000000e+04
-9.115000000000000000e+03
-5.487000000000000000e+03
-6.675000000000000000e+03
-1.072800000000000000e+04
-1.194800000000000000e+04
-9.452000000000000000e+03
-5.810000000000000000e+03
-6.861000000000000000e+03
-1.096300000000000000e+04
-1.230100000000000000e+04
-9.856000000000000000e+03
-6.132000000000000000e+03
-7.124000000000000000e+03
-1.120300000000000000e+04
-1.254700000000000000e+04
-1.016500000000000000e+04
-6.409000000000000000e+03
-7.212000000000000000e+03
-1.128400000000000000e+04
-1.274400000000000000e+04
-1.040800000000000000e+04
-6.684000000000000000e+03
-7.391000000000000000e+03
-1.148200000000000000e+04
-1.299100000000000000e+04
-1.069800000000000000e+04
-6.980000000000000000e+03
-7.622000000000000000e+03
-1.173400000000000000e+04
-1.326100000000000000e+04
-1.098400000000000000e+04
-7.219000000000000000e+03
-7.806000000000000000e+03
-1.193400000000000000e+04
-1.350600000000000000e+04
-1.122100000000000000e+04
-7.429000000000000000e+03
-7.864000000000000000e+03
-1.194100000000000000e+04
-1.356500000000000000e+04
-1.143500000000000000e+04
-7.655000000000000000e+03
-8.054000000000000000e+03
-1.231600000000000000e+04
-1.399200000000000000e+04
-1.177300000000000000e+04
-7.986000000000000000e+03
-8.230000000000000000e+03
-1.228500000000000000e+04
-1.409700000000000000e+04
-1.203200000000000000e+04
-8.224000000000000000e+03
-8.526000000000000000e+03
-1.247300000000000000e+04
-1.436700000000000000e+04
-1.237200000000000000e+04
-8.581000000000000000e+03
-8.484000000000000000e+03
-1.238600000000000000e+04
-1.441500000000000000e+04
-1.251700000000000000e+04
-8.881000000000000000e+03
-8.804000000000000000e+03
-1.264400000000000000e+04
-1.399500000000000000e+04
-1.135600000000000000e+04
-7.628000000000000000e+03
-7.336000000000000000e+03
-1.036900000000000000e+04
-1.159100000000000000e+04
-1.040200000000000000e+04
-7.546000000000000000e+03
-6.806000000000000000e+03
-1.005300000000000000e+04
-1.171600000000000000e+04
-9.171000000000000000e+03
-3.904000000000000000e+03
-3.234000000000000000e+03
-6.839000000000000000e+03
-7.776000000000000000e+03
-4.970000000000000000e+03
-5.600000000000000000e+02
-1.437000000000000000e+03
-5.268000000000000000e+03
-5.581000000000000000e+03
-3.549000000000000000e+03
4.010000000000000000e+02
1.284000000000000000e+03
-4.115000000000000000e+03
-5.918000000000000000e+03
-3.750000000000000000e+03
4.880000000000000000e+02
2.562000000000000000e+03
-1.537000000000000000e+03
-5.553000000000000000e+03
-5.404000000000000000e+03
-7.300000000000000000e+02
6.330000000000000000e+02
-2.889000000000000000e+03
-4.663000000000000000e+03
-3.252000000000000000e+03
4.130000000000000000e+02
3.075000000000000000e+03
3.063000000000000000e+03
3.226000000000000000e+03
5.701000000000000000e+03
1.230400000000000000e+04
1.645300000000000000e+04
1.622700000000000000e+04
1.540400000000000000e+04
1.779100000000000000e+04
2.433400000000000000e+04
2.690900000000000000e+04
2.606600000000000000e+04
2.449100000000000000e+04
2.575900000000000000e+04
3.131800000000000000e+04
3.405300000000000000e+04
3.092400000000000000e+04
2.930400000000000000e+04
3.101200000000000000e+04
3.583300000000000000e+04
3.895100000000000000e+04
3.742900000000000000e+04
3.487100000000000000e+04
3.631400000000000000e+04
4.107000000000000000e+04
4.360900000000000000e+04
3.961400000000000000e+04
3.842800000000000000e+04
4.010100000000000000e+04
4.303200000000000000e+04
4.461500000000000000e+04
4.141800000000000000e+04
4.001700000000000000e+04
4.111600000000000000e+04
4.512300000000000000e+04
4.745000000000000000e+04
4.422100000000000000e+04
4.112400000000000000e+04
4.190400000000000000e+04
4.575900000000000000e+04
4.757200000000000000e+04
4.408300000000000000e+04
4.340800000000000000e+04
4.376400000000000000e+04
4.531700000000000000e+04
4.748300000000000000e+04
4.515600000000000000e+04
4.297100000000000000e+04
4.533800000000000000e+04
4.918400000000000000e+04
4.937800000000000000e+04
4.767500000000000000e+04
4.513400000000000000e+04
4.591500000000000000e+04
5.031900000000000000e+04
5.190800000000000000e+04
4.926500000000000000e+04
4.679600000000000000e+04
4.743800000000000000e+04
5.002600000000000000e+04
5.220300000000000000e+04
5.010300000000000000e+04
4.724100000000000000e+04
4.807400000000000000e+04
5.221400000000000000e+04
5.366500000000000000e+04
5.118600000000000000e+04
4.913400000000000000e+04
4.916600000000000000e+04
5.162900000000000000e+04
5.345500000000000000e+04
5.172900000000000000e+04
4.976100000000000000e+04
5.147600000000000000e+04
5.506600000000000000e+04
5.698100000000000000e+04
5.322700000000000000e+04
5.034400000000000000e+04
5.092600000000000000e+04
5.444600000000000000e+04
5.758500000000000000e+04
5.581400000000000000e+04
5.346100000000000000e+04
5.365500000000000000e+04
5.610300000000000000e+04
5.802500000000000000e+04
5.624800000000000000e+04
5.440900000000000000e+04
5.533300000000000000e+04
5.880600000000000000e+04
6.076400000000000000e+04
5.737900000000000000e+04
5.415900000000000000e+04
5.396600000000000000e+04
5.612800000000000000e+04
5.759800000000000000e+04
5.444900000000000000e+04
5.085600000000000000e+04
5.140200000000000000e+04
5.358800000000000000e+04
5.336300000000000000e+04
4.971800000000000000e+04
4.505900000000000000e+04
4.215500000000000000e+04
4.157400000000000000e+04
4.076800000000000000e+04
3.662600000000000000e+04
3.182800000000000000e+04
3.029400000000000000e+04
3.140200000000000000e+04
3.140100000000000000e+04
2.668700000000000000e+04
2.227800000000000000e+04
2.109400000000000000e+04
2.265900000000000000e+04
2.299900000000000000e+04
1.900400000000000000e+04
1.458500000000000000e+04
1.284400000000000000e+04
1.409900000000000000e+04
1.525700000000000000e+04
1.256800000000000000e+04
9.386000000000000000e+03
8.994000000000000000e+03
1.105100000000000000e+04
1.286200000000000000e+04
1.059600000000000000e+04
7.873000000000000000e+03
8.120000000000000000e+03
1.100700000000000000e+04
1.370400000000000000e+04
1.195100000000000000e+04
9.594000000000000000e+03
1.018600000000000000e+04
1.339300000000000000e+04
1.675600000000000000e+04
1.566400000000000000e+04
1.369800000000000000e+04
1.473400000000000000e+04
1.846300000000000000e+04
2.203300000000000000e+04
2.132300000000000000e+04
1.968100000000000000e+04
2.090800000000000000e+04
2.481100000000000000e+04
2.857500000000000000e+04
2.794700000000000000e+04
2.655200000000000000e+04
2.791900000000000000e+04
3.191200000000000000e+04
3.576100000000000000e+04
3.512600000000000000e+04
3.345900000000000000e+04
3.453600000000000000e+04
3.792200000000000000e+04
4.092100000000000000e+04
3.955800000000000000e+04
3.692500000000000000e+04
3.679100000000000000e+04
3.927800000000000000e+04
4.167800000000000000e+04
3.952200000000000000e+04
3.622100000000000000e+04
3.521100000000000000e+04
3.675100000000000000e+04
3.829300000000000000e+04
3.561200000000000000e+04
3.162700000000000000e+04
3.033500000000000000e+04
3.153800000000000000e+04
3.288500000000000000e+04
3.017600000000000000e+04
2.614500000000000000e+04
2.472600000000000000e+04
2.585300000000000000e+04
2.722300000000000000e+04
2.459700000000000000e+04
2.062400000000000000e+04
1.917900000000000000e+04
2.038400000000000000e+04
2.194500000000000000e+04
1.954400000000000000e+04
1.569400000000000000e+04
1.435500000000000000e+04
1.580700000000000000e+04
1.756200000000000000e+04
1.534300000000000000e+04
1.160400000000000000e+04
1.043400000000000000e+04
1.192200000000000000e+04
1.381300000000000000e+04
1.183400000000000000e+04
8.230000000000000000e+03
7.065000000000000000e+03
8.634000000000000000e+03
1.066800000000000000e+04
8.939000000000000000e+03
5.463000000000000000e+03
4.383000000000000000e+03
6.120000000000000000e+03
8.397000000000000000e+03
6.838000000000000000e+03
3.541000000000000000e+03
2.672000000000000000e+03
4.559000000000000000e+03
7.153000000000000000e+03
5.946000000000000000e+03
2.730000000000000000e+03
1.880000000000000000e+03
3.879000000000000000e+03
6.558000000000000000e+03
5.490000000000000000e+03
2.304000000000000000e+03
1.431000000000000000e+03
3.385000000000000000e+03
6.174000000000000000e+03
5.273000000000000000e+03
2.189000000000000000e+03
1.389000000000000000e+03
3.366000000000000000e+03
6.144000000000000000e+03
5.258000000000000000e+03
2.191000000000000000e+03
1.365000000000000000e+03
3.293000000000000000e+03
6.218000000000000000e+03
5.627000000000000000e+03
2.658000000000000000e+03
1.851000000000000000e+03
3.803000000000000000e+03
6.711000000000000000e+03
6.129000000000000000e+03
3.173000000000000000e+03
2.328000000000000000e+03
4.377000000000000000e+03
7.321000000000000000e+03
6.757000000000000000e+03
3.784000000000000000e+03
2.893000000000000000e+03
4.857000000000000000e+03
7.669000000000000000e+03
7.215000000000000000e+03
4.299000000000000000e+03
3.421000000000000000e+03
5.311000000000000000e+03
8.159000000000000000e+03
7.714000000000000000e+03
4.731000000000000000e+03
3.736000000000000000e+03
5.424000000000000000e+03
8.186000000000000000e+03
7.814000000000000000e+03
4.841000000000000000e+03
3.696000000000000000e+03
5.401000000000000000e+03
8.205000000000000000e+03
7.821000000000000000e+03
4.856000000000000000e+03
3.674000000000000000e+03
5.268000000000000000e+03
8.001000000000000000e+03
7.709000000000000000e+03
4.654000000000000000e+03
3.391000000000000000e+03
4.896000000000000000e+03
7.646000000000000000e+03
7.381000000000000000e+03
4.312000000000000000e+03
3.019000000000000000e+03
4.490000000000000000e+03
7.222000000000000000e+03
6.978000000000000000e+03
3.876000000000000000e+03
2.512000000000000000e+03
3.911000000000000000e+03
6.628000000000000000e+03
6.494000000000000000e+03
3.324000000000000000e+03
1.901000000000000000e+03
3.291000000000000000e+03
5.962000000000000000e+03
5.864000000000000000e+03
2.779000000000000000e+03
1.353000000000000000e+03
2.726000000000000000e+03
5.475000000000000000e+03
5.513000000000000000e+03
2.546000000000000000e+03
1.104000000000000000e+03
2.425000000000000000e+03
5.086000000000000000e+03
5.144000000000000000e+03
2.108000000000000000e+03
6.550000000000000000e+02
1.965000000000000000e+03
4.693000000000000000e+03
4.838000000000000000e+03
1.789000000000000000e+03
2.110000000000000000e+02
1.473000000000000000e+03
4.185000000000000000e+03
4.455000000000000000e+03
1.553000000000000000e+03
7.200000000000000000e+01
1.379000000000000000e+03
4.077000000000000000e+03
4.425000000000000000e+03
1.536000000000000000e+03
-3.900000000000000000e+01
1.211000000000000000e+03
3.946000000000000000e+03
4.446000000000000000e+03
1.566000000000000000e+03
-4.700000000000000000e+01
1.089000000000000000e+03
3.691000000000000000e+03
4.061000000000000000e+03
1.153000000000000000e+03
-3.790000000000000000e+02
8.440000000000000000e+02
3.613000000000000000e+03
4.167000000000000000e+03
1.238000000000000000e+03
-4.860000000000000000e+02
6.140000000000000000e+02
3.303000000000000000e+03
3.891000000000000000e+03
1.050000000000000000e+03
-6.470000000000000000e+02
3.460000000000000000e+02
2.983000000000000000e+03
3.644000000000000000e+03
8.510000000000000000e+02
-9.110000000000000000e+02
4.900000000000000000e+01
2.707000000000000000e+03
3.479000000000000000e+03
7.430000000000000000e+02
-1.017000000000000000e+03
-8.100000000000000000e+01
2.539000000000000000e+03
3.320000000000000000e+03
5.800000000000000000e+02
-1.284000000000000000e+03
-4.030000000000000000e+02
2.192000000000000000e+03
3.030000000000000000e+03
2.930000000000000000e+02
-1.602000000000000000e+03
-8.130000000000000000e+02
1.684000000000000000e+03
2.585000000000000000e+03
-1.210000000000000000e+02
-2.044000000000000000e+03
-1.221000000000000000e+03
1.351000000000000000e+03
2.310000000000000000e+03
-3.350000000000000000e+02
-2.224000000000000000e+03
-1.381000000000000000e+03
1.206000000000000000e+03
2.213000000000000000e+03
-4.170000000000000000e+02
-2.382000000000000000e+03
-1.706000000000000000e+03
8.100000000000000000e+02
1.911000000000000000e+03
-6.530000000000000000e+02
-2.679000000000000000e+03
-2.023000000000000000e+03
4.940000000000000000e+02
1.658000000000000000e+03
-8.240000000000000000e+02
-2.857000000000000000e+03
-2.264000000000000000e+03
1.810000000000000000e+02
1.354000000000000000e+03
-1.169000000000000000e+03
-3.269000000000000000e+03
-2.721000000000000000e+03
-3.220000000000000000e+02
9.110000000000000000e+02
-1.525000000000000000e+03
-3.657000000000000000e+03
-3.130000000000000000e+03
-7.390000000000000000e+02
5.440000000000000000e+02
-1.829000000000000000e+03
-3.902000000000000000e+03
-3.412000000000000000e+03
-1.033000000000000000e+03
3.760000000000000000e+02
-1.948000000000000000e+03
-4.056000000000000000e+03
-3.571000000000000000e+03
-1.172000000000000000e+03
1.930000000000000000e+02
-2.101000000000000000e+03
-4.138000000000000000e+03
-3.667000000000000000e+03
-1.274000000000000000e+03
1.550000000000000000e+02
-2.076000000000000000e+03
-4.215000000000000000e+03
-3.796000000000000000e+03
-1.390000000000000000e+03
1.710000000000000000e+02
-1.989000000000000000e+03
-4.126000000000000000e+03
-3.767000000000000000e+03
-1.485000000000000000e+03
2.200000000000000000e+01
-2.181000000000000000e+03
-4.396000000000000000e+03
-4.062000000000000000e+03
-1.731000000000000000e+03
-1.310000000000000000e+02
-2.176000000000000000e+03
-4.334000000000000000e+03
-4.125000000000000000e+03
-1.938000000000000000e+03
-3.490000000000000000e+02
-2.477000000000000000e+03
-4.783000000000000000e+03
-4.547000000000000000e+03
-2.253000000000000000e+03
-5.610000000000000000e+02
-2.609000000000000000e+03
-4.832000000000000000e+03
-4.622000000000000000e+03
-2.339000000000000000e+03
-6.120000000000000000e+02
-2.587000000000000000e+03
-4.843000000000000000e+03
-4.684000000000000000e+03
-2.469000000000000000e+03
-7.240000000000000000e+02
-2.691000000000000000e+03
-5.062000000000000000e+03
-4.979000000000000000e+03
-2.813000000000000000e+03
-1.012000000000000000e+03
-2.847000000000000000e+03
-5.162000000000000000e+03
-5.102000000000000000e+03
-2.983000000000000000e+03
-1.182000000000000000e+03
-3.081000000000000000e+03
-5.486000000000000000e+03
-5.453000000000000000e+03
-3.307000000000000000e+03
-1.402000000000000000e+03
-3.152000000000000000e+03
-5.507000000000000000e+03
-5.487000000000000000e+03
-3.302000000000000000e+03
-1.409000000000000000e+03
-3.149000000000000000e+03
-5.502000000000000000e+03
-5.544000000000000000e+03
-3.438000000000000000e+03
-1.447000000000000000e+03
-3.091000000000000000e+03
-5.499000000000000000e+03
-5.566000000000000000e+03
-3.501000000000000000e+03
-1.546000000000000000e+03
-3.131000000000000000e+03
-5.541000000000000000e+03
-5.687000000000000000e+03
-3.704000000000000000e+03
-1.750000000000000000e+03
-3.367000000000000000e+03
-5.877000000000000000e+03
-6.042000000000000000e+03
-3.978000000000000000e+03
-1.911000000000000000e+03
-3.339000000000000000e+03
-5.705000000000000000e+03
-5.841000000000000000e+03
-3.847000000000000000e+03
-1.877000000000000000e+03
-3.400000000000000000e+03
-5.943000000000000000e+03
-6.167000000000000000e+03
-4.234000000000000000e+03
-2.216000000000000000e+03
-3.574000000000000000e+03
-5.987000000000000000e+03
-6.234000000000000000e+03
-4.264000000000000000e+03
-2.191000000000000000e+03
-3.547000000000000000e+03
-6.021000000000000000e+03
-6.357000000000000000e+03
-4.522000000000000000e+03
-2.432000000000000000e+03
-3.734000000000000000e+03
-6.208000000000000000e+03
-6.562000000000000000e+03
-4.712000000000000000e+03
-2.536000000000000000e+03
-3.707000000000000000e+03
-6.167000000000000000e+03
-6.527000000000000000e+03
-4.684000000000000000e+03
-2.575000000000000000e+03
-3.743000000000000000e+03
-6.242000000000000000e+03
-6.684000000000000000e+03
-4.872000000000000000e+03
-2.705000000000000000e+03
-3.758000000000000000e+03
-6.142000000000000000e+03
-6.522000000000000000e+03
-4.735000000000000000e+03
-2.621000000000000000e+03
-3.643000000000000000e+03
-6.125000000000000000e+03
-6.677000000000000000e+03
-4.951000000000000000e+03
-2.794000000000000000e+03
-3.742000000000000000e+03
-6.234000000000000000e+03
-6.822000000000000000e+03
-5.147000000000000000e+03
-2.994000000000000000e+03
-3.912000000000000000e+03
-6.462000000000000000e+03
-7.084000000000000000e+03
-5.406000000000000000e+03
-3.221000000000000000e+03
-4.082000000000000000e+03
-6.638000000000000000e+03
-7.266000000000000000e+03
-5.642000000000000000e+03
-3.511000000000000000e+03
-4.346000000000000000e+03
-6.853000000000000000e+03
-7.510000000000000000e+03
-5.979000000000000000e+03
-3.822000000000000000e+03
-4.615000000000000000e+03
-7.174000000000000000e+03
-7.866000000000000000e+03
-6.275000000000000000e+03
-4.098000000000000000e+03
-4.807000000000000000e+03
-7.357000000000000000e+03
-8.154000000000000000e+03
-6.643000000000000000e+03
-4.419000000000000000e+03
-5.022000000000000000e+03
-7.502000000000000000e+03
-8.256000000000000000e+03
-6.745000000000000000e+03
-4.596000000000000000e+03
-5.169000000000000000e+03
-7.592000000000000000e+03
-8.399000000000000000e+03
-6.917000000000000000e+03
-4.677000000000000000e+03
-5.126000000000000000e+03
-7.573000000000000000e+03
-8.406000000000000000e+03
-6.992000000000000000e+03
-4.787000000000000000e+03
-5.204000000000000000e+03
-7.670000000000000000e+03
-8.586000000000000000e+03
-7.187000000000000000e+03
-4.941000000000000000e+03
-5.286000000000000000e+03
-7.769000000000000000e+03
-8.710000000000000000e+03
-7.400000000000000000e+03
-5.208000000000000000e+03
-5.589000000000000000e+03
-8.096000000000000000e+03
-9.042000000000000000e+03
-7.691000000000000000e+03
-5.435000000000000000e+03
-5.677000000000000000e+03
-8.145000000000000000e+03
-9.082000000000000000e+03
-7.763000000000000000e+03
-5.512000000000000000e+03
-5.719000000000000000e+03
-8.216000000000000000e+03
-9.252000000000000000e+03
-8.035000000000000000e+03
-5.871000000000000000e+03
-6.046000000000000000e+03
-8.487000000000000000e+03
-9.562000000000000000e+03
-8.376000000000000000e+03
-6.184000000000000000e+03
-6.276000000000000000e+03
-8.662000000000000000e+03
-9.704000000000000000e+03
-8.511000000000000000e+03
-6.341000000000000000e+03
-6.410000000000000000e+03
-8.848000000000000000e+03
-9.936000000000000000e+03
-8.753000000000000000e+03
-6.544000000000000000e+03
-6.529000000000000000e+03
-8.932000000000000000e+03
-1.006900000000000000e+04
-8.975000000000000000e+03
-6.827000000000000000e+03
-6.784000000000000000e+03
-9.171000000000000000e+03
-1.027600000000000000e+04
-9.221000000000000000e+03
-7.136000000000000000e+03
-7.028000000000000000e+03
-9.392000000000000000e+03
-1.050700000000000000e+04
-9.476000000000000000e+03
-7.452000000000000000e+03
-7.296000000000000000e+03
-9.601000000000000000e+03
-1.078500000000000000e+04
-9.768000000000000000e+03
-7.677000000000000000e+03
-7.462000000000000000e+03
-9.774000000000000000e+03
-1.106200000000000000e+04
-1.009800000000000000e+04
-8.067000000000000000e+03
-7.850000000000000000e+03
-1.009700000000000000e+04
-1.127600000000000000e+04
-1.030300000000000000e+04
-8.246000000000000000e+03
-7.969000000000000000e+03
-1.024300000000000000e+04
-1.147600000000000000e+04
-1.054100000000000000e+04
-8.484000000000000000e+03
-8.152000000000000000e+03
-1.036800000000000000e+04
-1.159500000000000000e+04
-1.064600000000000000e+04
-8.622000000000000000e+03
-8.261000000000000000e+03
-1.049000000000000000e+04
-1.177900000000000000e+04
-1.085900000000000000e+04
-8.792000000000000000e+03
-8.317000000000000000e+03
-1.050600000000000000e+04
-1.180400000000000000e+04
-1.092500000000000000e+04
-8.899000000000000000e+03
-8.450000000000000000e+03
-1.065200000000000000e+04
-1.203200000000000000e+04
-1.123100000000000000e+04
-9.197000000000000000e+03
-8.676000000000000000e+03
-1.086600000000000000e+04
-1.227400000000000000e+04
-1.147000000000000000e+04
-9.457000000000000000e+03
-8.866000000000000000e+03
-1.097100000000000000e+04
-1.234900000000000000e+04
-1.162700000000000000e+04
-9.694000000000000000e+03
-9.095000000000000000e+03
-1.121900000000000000e+04
-1.261000000000000000e+04
-1.186700000000000000e+04
-9.934000000000000000e+03
-9.256000000000000000e+03
-1.125900000000000000e+04
-1.270200000000000000e+04
-1.201600000000000000e+04
-1.010800000000000000e+04
-9.396000000000000000e+03
-1.144300000000000000e+04
-1.286900000000000000e+04
-1.217000000000000000e+04
-1.024200000000000000e+04
-9.564000000000000000e+03
-1.159700000000000000e+04
-1.307900000000000000e+04
-1.242700000000000000e+04
-1.056200000000000000e+04
-9.836000000000000000e+03
-1.182100000000000000e+04
-1.331400000000000000e+04
-1.264900000000000000e+04
-1.069400000000000000e+04
-9.912000000000000000e+03
-1.190200000000000000e+04
-1.342400000000000000e+04
-1.286700000000000000e+04
-1.096100000000000000e+04
-1.010000000000000000e+04
-1.205600000000000000e+04
-1.359700000000000000e+04
-1.300600000000000000e+04
-1.107900000000000000e+04
-1.020000000000000000e+04
-1.217600000000000000e+04
-1.375100000000000000e+04
-1.320700000000000000e+04
-1.130600000000000000e+04
-1.038200000000000000e+04
-1.224100000000000000e+04
-1.381100000000000000e+04
-1.330300000000000000e+04
-1.138900000000000000e+04
-1.040600000000000000e+04
-1.228400000000000000e+04
-1.389200000000000000e+04
-1.341600000000000000e+04
-1.151100000000000000e+04
-1.050400000000000000e+04
-1.233900000000000000e+04
-1.397700000000000000e+04
-1.351900000000000000e+04
-1.167500000000000000e+04
-1.069400000000000000e+04
-1.247700000000000000e+04
-1.407900000000000000e+04
-1.377400000000000000e+04
-1.201700000000000000e+04
-1.093500000000000000e+04
-1.266700000000000000e+04
-1.430900000000000000e+04
-1.396900000000000000e+04
-1.219700000000000000e+04
-1.111200000000000000e+04
-1.285200000000000000e+04
-1.454400000000000000e+04
-1.421900000000000000e+04
-1.246200000000000000e+04
-1.130600000000000000e+04
-1.298100000000000000e+04
-1.467700000000000000e+04
-1.436100000000000000e+04
-1.260900000000000000e+04
-1.144100000000000000e+04
-1.309600000000000000e+04
-1.480600000000000000e+04
-1.461400000000000000e+04
-1.292000000000000000e+04
-1.166100000000000000e+04
-1.319000000000000000e+04
-1.483300000000000000e+04
-1.455600000000000000e+04
-1.280900000000000000e+04
-1.160200000000000000e+04
-1.319700000000000000e+04
-1.496300000000000000e+04
-1.483200000000000000e+04
-1.315700000000000000e+04
-1.189000000000000000e+04
-1.344200000000000000e+04
-1.519600000000000000e+04
-1.496700000000000000e+04
-1.327200000000000000e+04
-1.201700000000000000e+04
-1.349700000000000000e+04
-1.527900000000000000e+04
-1.516400000000000000e+04
-1.354900000000000000e+04
-1.232000000000000000e+04
-1.375400000000000000e+04
-1.552000000000000000e+04
-1.540700000000000000e+04
-1.379300000000000000e+04
-1.254200000000000000e+04
-1.398800000000000000e+04
-1.576200000000000000e+04
-1.567000000000000000e+04
-1.407700000000000000e+04
-1.277600000000000000e+04
-1.416300000000000000e+04
-1.601600000000000000e+04
-1.599600000000000000e+04
-1.446200000000000000e+04
-1.309600000000000000e+04
-1.439900000000000000e+04
-1.621200000000000000e+04
-1.619000000000000000e+04
-1.451400000000000000e+04
-1.307500000000000000e+04
-1.435200000000000000e+04
-1.617900000000000000e+04
-1.623400000000000000e+04
-1.471200000000000000e+04
-1.346200000000000000e+04
-1.475600000000000000e+04
-1.654400000000000000e+04
-1.657700000000000000e+04
-1.516500000000000000e+04
-1.384700000000000000e+04
-1.500200000000000000e+04
-1.674900000000000000e+04
-1.679100000000000000e+04
-1.536400000000000000e+04
-1.393200000000000000e+04
-1.499900000000000000e+04
-1.679700000000000000e+04
-1.688800000000000000e+04
-1.538300000000000000e+04
-1.397200000000000000e+04
-1.510100000000000000e+04
-1.696900000000000000e+04
-1.710500000000000000e+04
-1.569900000000000000e+04
-1.430700000000000000e+04
-1.537400000000000000e+04
-1.723200000000000000e+04
-1.741300000000000000e+04
-1.605300000000000000e+04
-1.466000000000000000e+04
-1.567200000000000000e+04
-1.747900000000000000e+04
-1.768900000000000000e+04
-1.632700000000000000e+04
-1.491800000000000000e+04
-1.585600000000000000e+04
-1.755500000000000000e+04
-1.772100000000000000e+04
-1.632700000000000000e+04
-1.487100000000000000e+04
-1.572600000000000000e+04
-1.748100000000000000e+04
-1.773700000000000000e+04
-1.648200000000000000e+04
-1.508900000000000000e+04
-1.597100000000000000e+04
-1.777700000000000000e+04
-1.803600000000000000e+04
-1.677300000000000000e+04
-1.539800000000000000e+04
-1.622600000000000000e+04
-1.798200000000000000e+04
-1.826600000000000000e+04
-1.699900000000000000e+04
-1.559600000000000000e+04
-1.633400000000000000e+04
-1.809200000000000000e+04
-1.843100000000000000e+04
-1.718200000000000000e+04
-1.572200000000000000e+04
-1.637600000000000000e+04
-1.814400000000000000e+04
-1.843700000000000000e+04
-1.721900000000000000e+04
-1.580700000000000000e+04
-1.645400000000000000e+04
-1.817100000000000000e+04
-1.850900000000000000e+04
-1.733600000000000000e+04
-1.590900000000000000e+04
-1.646600000000000000e+04
-1.818800000000000000e+04
-1.860200000000000000e+04
-1.748100000000000000e+04
-1.604200000000000000e+04
-1.662500000000000000e+04
-1.836800000000000000e+04
-1.881600000000000000e+04
-1.771700000000000000e+04
-1.634700000000000000e+04
-1.688300000000000000e+04
-1.857100000000000000e+04
-1.897400000000000000e+04
-1.792700000000000000e+04
-1.651600000000000000e+04
-1.695600000000000000e+04
-1.866700000000000000e+04
-1.910900000000000000e+04
-1.799100000000000000e+04
-1.651900000000000000e+04
-1.694800000000000000e+04
-1.870200000000000000e+04
-1.911700000000000000e+04
-1.799800000000000000e+04
-1.654400000000000000e+04
-1.694600000000000000e+04
-1.860900000000000000e+04
-1.905700000000000000e+04
-1.803600000000000000e+04
-1.661200000000000000e+04
-1.694300000000000000e+04
-1.864900000000000000e+04
-1.924900000000000000e+04
-1.826800000000000000e+04
-1.678800000000000000e+04
-1.706900000000000000e+04
-1.880700000000000000e+04
-1.940200000000000000e+04
-1.837900000000000000e+04
-1.694800000000000000e+04
-1.728900000000000000e+04
-1.901900000000000000e+04
-1.955300000000000000e+04
-1.858600000000000000e+04
-1.718100000000000000e+04
-1.739900000000000000e+04
-1.907200000000000000e+04
-1.966200000000000000e+04
-1.874100000000000000e+04
-1.733800000000000000e+04
-1.749700000000000000e+04
-1.914500000000000000e+04
-1.974400000000000000e+04
-1.885400000000000000e+04
-1.741700000000000000e+04
-1.750100000000000000e+04
-1.918100000000000000e+04
-1.980100000000000000e+04
-1.888300000000000000e+04
-1.746600000000000000e+04
-1.757200000000000000e+04
-1.927800000000000000e+04
-1.986400000000000000e+04
-1.892400000000000000e+04
-1.753700000000000000e+04
-1.765600000000000000e+04
-1.924300000000000000e+04
-1.990600000000000000e+04
-1.904800000000000000e+04
-1.764700000000000000e+04
-1.763100000000000000e+04
-1.930200000000000000e+04
-2.000400000000000000e+04
-1.912200000000000000e+04
-1.765000000000000000e+04
-1.766500000000000000e+04
-1.947900000000000000e+04
-2.023100000000000000e+04
-1.942600000000000000e+04
-1.800000000000000000e+04
-1.800900000000000000e+04
-1.970700000000000000e+04
-2.044600000000000000e+04
-1.962600000000000000e+04
-1.808200000000000000e+04
-1.796300000000000000e+04
-1.959800000000000000e+04
-2.032100000000000000e+04
-1.953200000000000000e+04
-1.809700000000000000e+04
-1.800900000000000000e+04
-1.973700000000000000e+04
-2.057900000000000000e+04
-1.983200000000000000e+04
-1.835900000000000000e+04
-1.820200000000000000e+04
-1.984800000000000000e+04
-2.063900000000000000e+04
-1.993600000000000000e+04
-1.846700000000000000e+04
-1.826100000000000000e+04
-1.992400000000000000e+04
-2.080400000000000000e+04
-2.010300000000000000e+04
-1.864100000000000000e+04
-1.841800000000000000e+04
-2.015500000000000000e+04
-2.103100000000000000e+04
-2.029200000000000000e+04
-1.885200000000000000e+04
-1.862600000000000000e+04
-2.029100000000000000e+04
-2.120000000000000000e+04
-2.049300000000000000e+04
-1.903300000000000000e+04
-1.874900000000000000e+04
-2.046600000000000000e+04
-2.145400000000000000e+04
-2.075500000000000000e+04
-1.924800000000000000e+04
-1.888700000000000000e+04
-2.052000000000000000e+04
-2.147300000000000000e+04
-2.088200000000000000e+04
-1.938800000000000000e+04
-1.896800000000000000e+04
-2.063500000000000000e+04
-2.161600000000000000e+04
-2.097500000000000000e+04
-1.945500000000000000e+04
-1.899100000000000000e+04
-2.059000000000000000e+04
-2.158700000000000000e+04
-2.096500000000000000e+04
-1.947900000000000000e+04
-1.896900000000000000e+04
-2.057900000000000000e+04
-2.156700000000000000e+04
-2.094000000000000000e+04
-1.942200000000000000e+04
-1.888300000000000000e+04
-2.049000000000000000e+04
-2.155400000000000000e+04
-2.099600000000000000e+04
-1.949600000000000000e+04
-1.896200000000000000e+04
-2.052900000000000000e+04
-2.163200000000000000e+04
-2.111700000000000000e+04
-1.968200000000000000e+04
-1.914600000000000000e+04
-2.078700000000000000e+04
-2.190200000000000000e+04
-2.138400000000000000e+04
-2.000000000000000000e+04
-1.947300000000000000e+04
-2.105700000000000000e+04
-2.214700000000000000e+04
-2.171600000000000000e+04
-2.034500000000000000e+04
-1.973600000000000000e+04
-2.127100000000000000e+04
-2.246200000000000000e+04
-2.204900000000000000e+04
-2.065600000000000000e+04
-2.001300000000000000e+04
-2.148100000000000000e+04
-2.262500000000000000e+04
-2.216800000000000000e+04
-2.073700000000000000e+04
-2.006300000000000000e+04
-2.151700000000000000e+04
-2.269100000000000000e+04
-2.228400000000000000e+04
-2.091600000000000000e+04
-2.029000000000000000e+04
-2.171500000000000000e+04
-2.294600000000000000e+04
-2.260400000000000000e+04
-2.117300000000000000e+04
-2.042900000000000000e+04
-2.191300000000000000e+04
-2.312200000000000000e+04
-2.275000000000000000e+04
-2.136900000000000000e+04
-2.052400000000000000e+04
-2.192000000000000000e+04
-2.315700000000000000e+04
-2.275800000000000000e+04
-2.130900000000000000e+04
-2.045500000000000000e+04
-2.187500000000000000e+04
-2.316200000000000000e+04
-2.286900000000000000e+04
-2.150800000000000000e+04
-2.071200000000000000e+04
-2.213000000000000000e+04
-2.346900000000000000e+04
-2.313900000000000000e+04
-2.173500000000000000e+04
-2.088100000000000000e+04
-2.226100000000000000e+04
-2.359700000000000000e+04
-2.337200000000000000e+04
-2.197900000000000000e+04
-2.100400000000000000e+04
-2.231000000000000000e+04
-2.362500000000000000e+04
-2.334600000000000000e+04
-2.194200000000000000e+04
-2.098200000000000000e+04
-2.228200000000000000e+04
-2.355900000000000000e+04
-2.320400000000000000e+04
-2.172900000000000000e+04
-2.077100000000000000e+04
-2.206100000000000000e+04
-2.340600000000000000e+04
-2.323700000000000000e+04
-2.190000000000000000e+04
-2.091100000000000000e+04
-2.218000000000000000e+04
-2.358400000000000000e+04
-2.338900000000000000e+04
-2.206200000000000000e+04
-2.109600000000000000e+04
-2.237900000000000000e+04
-2.382900000000000000e+04
-2.375700000000000000e+04
-2.255800000000000000e+04
-2.157300000000000000e+04
-2.279700000000000000e+04
-2.424500000000000000e+04
-2.410600000000000000e+04
-2.284700000000000000e+04
-2.184200000000000000e+04
-2.306400000000000000e+04
-2.451900000000000000e+04
-2.443900000000000000e+04
-2.321100000000000000e+04
-2.221700000000000000e+04
-2.329000000000000000e+04
-2.462500000000000000e+04
-2.444300000000000000e+04
-2.311100000000000000e+04
-2.201200000000000000e+04
-2.305000000000000000e+04
-2.444700000000000000e+04
-2.441200000000000000e+04
-2.318700000000000000e+04
-2.209600000000000000e+04
-2.312600000000000000e+04
-2.449600000000000000e+04
-2.444600000000000000e+04
-2.327700000000000000e+04
-2.220700000000000000e+04
-2.316600000000000000e+04
-2.453600000000000000e+04
-2.445200000000000000e+04
-2.325900000000000000e+04
-2.218600000000000000e+04
-2.310100000000000000e+04
-2.449600000000000000e+04
-2.441800000000000000e+04
-2.320900000000000000e+04
-2.209800000000000000e+04
-2.305200000000000000e+04
-2.442400000000000000e+04
-2.440300000000000000e+04
-2.326200000000000000e+04
-2.221500000000000000e+04
-2.314600000000000000e+04
-2.454700000000000000e+04
-2.457100000000000000e+04
-2.344600000000000000e+04
-2.236700000000000000e+04
-2.326200000000000000e+04
-2.473200000000000000e+04
-2.480000000000000000e+04
-2.364900000000000000e+04
-2.254200000000000000e+04
-2.336100000000000000e+04
-2.474900000000000000e+04
-2.470500000000000000e+04
-2.353700000000000000e+04
-2.237700000000000000e+04
-2.312100000000000000e+04
-2.454100000000000000e+04
-2.458400000000000000e+04
-2.348100000000000000e+04
-2.238100000000000000e+04
-2.312000000000000000e+04
-2.455100000000000000e+04
-2.464000000000000000e+04
-2.353200000000000000e+04
-2.239100000000000000e+04
-2.310900000000000000e+04
-2.455900000000000000e+04
-2.467200000000000000e+04
-2.353400000000000000e+04
-2.230100000000000000e+04
-2.297400000000000000e+04
-2.440400000000000000e+04
-2.452000000000000000e+04
-2.348200000000000000e+04
-2.235100000000000000e+04
-2.301100000000000000e+04
-2.448500000000000000e+04
-2.470700000000000000e+04
-2.375500000000000000e+04
-2.269400000000000000e+04
-2.340700000000000000e+04
-2.492600000000000000e+04
-2.517100000000000000e+04
-2.421400000000000000e+04
-2.304300000000000000e+04
-2.354400000000000000e+04
-2.493100000000000000e+04
-2.509500000000000000e+04
-2.409800000000000000e+04
-2.294300000000000000e+04
-2.346200000000000000e+04
-2.487400000000000000e+04
-2.506800000000000000e+04
-2.403100000000000000e+04
-2.283700000000000000e+04
-2.334700000000000000e+04
-2.477500000000000000e+04
-2.498700000000000000e+04
-2.397200000000000000e+04
-2.275100000000000000e+04
-2.322400000000000000e+04
-2.470100000000000000e+04
-2.495900000000000000e+04
-2.397200000000000000e+04
-2.268700000000000000e+04
-2.311300000000000000e+04
-2.463500000000000000e+04
-2.492100000000000000e+04
-2.397300000000000000e+04
-2.277900000000000000e+04
-2.318900000000000000e+04
-2.462700000000000000e+04
-2.495200000000000000e+04
-2.400200000000000000e+04
-2.275100000000000000e+04
-2.310400000000000000e+04
-2.457600000000000000e+04
-2.494200000000000000e+04
-2.400400000000000000e+04
-2.280600000000000000e+04
-2.319900000000000000e+04
-2.473500000000000000e+04
-2.513200000000000000e+04
-2.428500000000000000e+04
-2.312100000000000000e+04
-2.353000000000000000e+04
-2.515100000000000000e+04
-2.560600000000000000e+04
-2.479000000000000000e+04
-2.362700000000000000e+04
-2.399700000000000000e+04
-2.560800000000000000e+04
-2.607200000000000000e+04
-2.523800000000000000e+04
-2.404500000000000000e+04
-2.436700000000000000e+04
-2.587900000000000000e+04
-2.618800000000000000e+04
-2.525400000000000000e+04
-2.395300000000000000e+04
-2.406700000000000000e+04
-2.547500000000000000e+04
-2.582100000000000000e+04
-2.484600000000000000e+04
-2.348600000000000000e+04
-2.359100000000000000e+04
-2.506700000000000000e+04
-2.551600000000000000e+04
-2.461500000000000000e+04
-2.339000000000000000e+04
-2.354900000000000000e+04
-2.508600000000000000e+04
-2.556600000000000000e+04
-2.470000000000000000e+04
-2.348800000000000000e+04
-2.362400000000000000e+04
-2.514400000000000000e+04
-2.566600000000000000e+04
-2.494600000000000000e+04
-2.367600000000000000e+04
-2.371200000000000000e+04
-2.523900000000000000e+04
-2.579800000000000000e+04
-2.507700000000000000e+04
-2.391100000000000000e+04
-2.403900000000000000e+04
-2.555700000000000000e+04
-2.608400000000000000e+04
-2.530700000000000000e+04
-2.396100000000000000e+04
-2.387700000000000000e+04
-2.535100000000000000e+04
-2.592100000000000000e+04
-2.528900000000000000e+04
-2.413400000000000000e+04
-2.412600000000000000e+04
-2.563700000000000000e+04
-2.619700000000000000e+04
-2.547400000000000000e+04
-2.419900000000000000e+04
-2.408400000000000000e+04
-2.553800000000000000e+04
-2.611400000000000000e+04
-2.540900000000000000e+04
-2.410700000000000000e+04
-2.392900000000000000e+04
-2.534800000000000000e+04
-2.593400000000000000e+04
-2.525500000000000000e+04
-2.401700000000000000e+04
-2.388200000000000000e+04
-2.532700000000000000e+04
-2.595500000000000000e+04
-2.528400000000000000e+04
-2.407100000000000000e+04
-2.393900000000000000e+04
-2.539800000000000000e+04
-2.603500000000000000e+04
-2.536700000000000000e+04
-2.412300000000000000e+04
-2.390300000000000000e+04
-2.528600000000000000e+04
-2.592900000000000000e+04
-2.528100000000000000e+04
-2.404400000000000000e+04
-2.380800000000000000e+04
-2.524200000000000000e+04
-2.596000000000000000e+04
-2.536800000000000000e+04
-2.414800000000000000e+04
-2.393800000000000000e+04
-2.539000000000000000e+04
-2.609700000000000000e+04
-2.547900000000000000e+04
-2.423600000000000000e+04
-2.385600000000000000e+04
-2.521500000000000000e+04
-2.596100000000000000e+04
-2.546600000000000000e+04
-2.431200000000000000e+04
-2.396600000000000000e+04
-2.534200000000000000e+04
-2.607700000000000000e+04
-2.548900000000000000e+04
-2.428700000000000000e+04
-2.387800000000000000e+04
-2.520600000000000000e+04
-2.595900000000000000e+04
-2.545700000000000000e+04
-2.427100000000000000e+04
-2.381800000000000000e+04
-2.514800000000000000e+04
-2.594700000000000000e+04
-2.546400000000000000e+04
-2.426600000000000000e+04
-2.383800000000000000e+04
-2.520600000000000000e+04
-2.604300000000000000e+04
-2.554900000000000000e+04
-2.434400000000000000e+04
-2.386900000000000000e+04
-2.522600000000000000e+04
-2.610100000000000000e+04
-2.568100000000000000e+04
-2.449600000000000000e+04
-2.398200000000000000e+04
-2.529700000000000000e+04
-2.617400000000000000e+04
-2.575200000000000000e+04
-2.466700000000000000e+04
-2.420000000000000000e+04
-2.548200000000000000e+04
-2.634100000000000000e+04
-2.591400000000000000e+04
-2.478700000000000000e+04
-2.429400000000000000e+04
-2.561300000000000000e+04
-2.651900000000000000e+04
-2.607500000000000000e+04
-2.482400000000000000e+04
-2.417500000000000000e+04
-2.538700000000000000e+04
-2.623000000000000000e+04
-2.581100000000000000e+04
-2.474100000000000000e+04
-2.419400000000000000e+04
-2.538400000000000000e+04
-2.626000000000000000e+04
-2.586300000000000000e+04
-2.476100000000000000e+04
-2.418200000000000000e+04
-2.540800000000000000e+04
-2.635200000000000000e+04
-2.594700000000000000e+04
-2.474100000000000000e+04
-2.412300000000000000e+04
-2.531700000000000000e+04
-2.622700000000000000e+04
-2.589200000000000000e+04
-2.485200000000000000e+04
-2.424400000000000000e+04
-2.537600000000000000e+04
-2.627600000000000000e+04
-2.588000000000000000e+04
-2.481900000000000000e+04
-2.432900000000000000e+04
-2.545200000000000000e+04
-2.612200000000000000e+04
-2.560600000000000000e+04
-2.439900000000000000e+04
-2.417600000000000000e+04
-2.536200000000000000e+04
-2.594400000000000000e+04
-2.535000000000000000e+04
-2.429100000000000000e+04
-2.306400000000000000e+04
-2.401200000000000000e+04
-2.490700000000000000e+04
-2.481100000000000000e+04
-2.349200000000000000e+04
-2.259800000000000000e+04
-2.355600000000000000e+04
-2.231700000000000000e+04
-2.114100000000000000e+04
-2.072000000000000000e+04
-2.054100000000000000e+04
-2.105700000000000000e+04
-2.161600000000000000e+04
-2.095200000000000000e+04
-1.885800000000000000e+04
-1.711900000000000000e+04
-1.766100000000000000e+04
-1.892100000000000000e+04
-1.956800000000000000e+04
-1.624500000000000000e+04
-1.420400000000000000e+04
-1.530400000000000000e+04
-1.556700000000000000e+04
-1.659500000000000000e+04
-1.620600000000000000e+04
-1.441400000000000000e+04
-1.448300000000000000e+04
-1.595000000000000000e+04
-1.669700000000000000e+04
-1.551400000000000000e+04
-1.418900000000000000e+04
-1.540700000000000000e+04
-1.632800000000000000e+04
-1.608600000000000000e+04
-1.418600000000000000e+04
-1.126900000000000000e+04
-1.053700000000000000e+04
-1.040100000000000000e+04
-7.579000000000000000e+03
-3.533000000000000000e+03
-4.530000000000000000e+02
1.052000000000000000e+03
3.622000000000000000e+03
5.826000000000000000e+03
7.992000000000000000e+03
1.032300000000000000e+04
1.297000000000000000e+04
1.380300000000000000e+04
1.347400000000000000e+04
1.584100000000000000e+04
1.713300000000000000e+04
1.618400000000000000e+04
1.663400000000000000e+04
1.820200000000000000e+04
1.959100000000000000e+04
2.063300000000000000e+04
2.041800000000000000e+04
2.120800000000000000e+04
2.149300000000000000e+04
2.412100000000000000e+04
2.595600000000000000e+04
2.385200000000000000e+04
2.429100000000000000e+04
2.756600000000000000e+04
2.663500000000000000e+04
2.737400000000000000e+04
2.789200000000000000e+04
2.768600000000000000e+04
2.848200000000000000e+04
2.986200000000000000e+04
3.004400000000000000e+04
2.935600000000000000e+04
2.935600000000000000e+04
3.051300000000000000e+04
3.083200000000000000e+04
3.038100000000000000e+04
2.949300000000000000e+04
2.993500000000000000e+04
3.175900000000000000e+04
3.133100000000000000e+04
3.080400000000000000e+04
3.117500000000000000e+04
3.154700000000000000e+04
3.224300000000000000e+04
3.267700000000000000e+04
3.272300000000000000e+04
3.116800000000000000e+04
3.251000000000000000e+04
3.516400000000000000e+04
3.378900000000000000e+04
3.332900000000000000e+04
3.349600000000000000e+04
3.415500000000000000e+04
3.514300000000000000e+04
3.655900000000000000e+04
3.579700000000000000e+04
3.598600000000000000e+04
3.601600000000000000e+04
3.564700000000000000e+04
3.599500000000000000e+04
3.646400000000000000e+04
3.579500000000000000e+04
3.567400000000000000e+04
3.627800000000000000e+04
3.735300000000000000e+04
3.745400000000000000e+04
3.752400000000000000e+04
3.705100000000000000e+04
3.723500000000000000e+04
3.733100000000000000e+04
3.725600000000000000e+04
3.762800000000000000e+04
3.706600000000000000e+04
3.753900000000000000e+04
3.871900000000000000e+04
3.805600000000000000e+04
3.780700000000000000e+04
3.795900000000000000e+04
3.873200000000000000e+04
3.919800000000000000e+04
3.890000000000000000e+04
3.862300000000000000e+04
3.895900000000000000e+04
3.946100000000000000e+04
4.002600000000000000e+04
4.047200000000000000e+04
4.057900000000000000e+04
4.078000000000000000e+04
4.103700000000000000e+04
4.127400000000000000e+04
4.127800000000000000e+04
4.072300000000000000e+04
4.100100000000000000e+04
4.178000000000000000e+04
4.190600000000000000e+04
4.168600000000000000e+04
4.081700000000000000e+04
4.042800000000000000e+04
4.060800000000000000e+04
4.057400000000000000e+04
3.990800000000000000e+04
3.847200000000000000e+04
3.727200000000000000e+04
3.683900000000000000e+04
3.579800000000000000e+04
3.433900000000000000e+04
3.232200000000000000e+04
3.047900000000000000e+04
2.928600000000000000e+04
2.800100000000000000e+04
2.608800000000000000e+04
2.359200000000000000e+04
2.126700000000000000e+04
1.960000000000000000e+04
1.748000000000000000e+04
1.511200000000000000e+04
1.318900000000000000e+04
1.156700000000000000e+04
1.040500000000000000e+04
8.955000000000000000e+03
6.873000000000000000e+03
4.771000000000000000e+03
2.787000000000000000e+03
1.763000000000000000e+03
8.840000000000000000e+02
1.160000000000000000e+02
-7.850000000000000000e+02
-1.632000000000000000e+03
-1.798000000000000000e+03
-1.847000000000000000e+03
-2.001000000000000000e+03
-2.284000000000000000e+03
-2.623000000000000000e+03
-2.251000000000000000e+03
-1.824000000000000000e+03
-1.421000000000000000e+03
-1.191000000000000000e+03
-9.270000000000000000e+02
-1.940000000000000000e+02
6.330000000000000000e+02
1.294000000000000000e+03
1.683000000000000000e+03
2.274000000000000000e+03
3.539000000000000000e+03
4.868000000000000000e+03
6.021000000000000000e+03
7.120000000000000000e+03
8.554000000000000000e+03
1.080400000000000000e+04
1.294600000000000000e+04
1.503800000000000000e+04
1.679600000000000000e+04
1.845700000000000000e+04
2.076900000000000000e+04
2.283100000000000000e+04
2.449300000000000000e+04
2.579900000000000000e+04
2.712800000000000000e+04
2.890000000000000000e+04
3.041800000000000000e+04
3.126800000000000000e+04
3.185600000000000000e+04
3.228500000000000000e+04
3.317800000000000000e+04
3.402300000000000000e+04
3.369700000000000000e+04
3.313600000000000000e+04
3.305900000000000000e+04
3.328900000000000000e+04
3.328100000000000000e+04
3.265300000000000000e+04
3.164100000000000000e+04
3.061400000000000000e+04
3.013300000000000000e+04
2.953800000000000000e+04
2.846600000000000000e+04
2.708900000000000000e+04
2.585300000000000000e+04
2.511700000000000000e+04
2.410400000000000000e+04
2.264100000000000000e+04
2.092300000000000000e+04
1.939800000000000000e+04
1.843000000000000000e+04
1.733700000000000000e+04
1.582700000000000000e+04
1.425200000000000000e+04
1.286300000000000000e+04
1.204800000000000000e+04
1.118800000000000000e+04
9.937000000000000000e+03
8.542000000000000000e+03
7.381000000000000000e+03
6.820000000000000000e+03
6.203000000000000000e+03
5.281000000000000000e+03
4.258000000000000000e+03
3.504000000000000000e+03
3.381000000000000000e+03
3.329000000000000000e+03
2.953000000000000000e+03
2.458000000000000000e+03
2.033000000000000000e+03
2.067000000000000000e+03
2.123000000000000000e+03
1.834000000000000000e+03
1.344000000000000000e+03
8.560000000000000000e+02
8.810000000000000000e+02
1.050000000000000000e+03
8.060000000000000000e+02
4.840000000000000000e+02
1.490000000000000000e+02
1.880000000000000000e+02
2.330000000000000000e+02
2.300000000000000000e+01
-3.060000000000000000e+02
-7.150000000000000000e+02
-6.320000000000000000e+02
-4.240000000000000000e+02
-5.270000000000000000e+02
-7.260000000000000000e+02
-1.077000000000000000e+03
-1.009000000000000000e+03
-7.560000000000000000e+02
-6.970000000000000000e+02
-8.330000000000000000e+02
-1.120000000000000000e+03
-9.610000000000000000e+02
-6.050000000000000000e+02
-5.340000000000000000e+02
-6.010000000000000000e+02
-7.420000000000000000e+02
-5.100000000000000000e+02
-1.110000000000000000e+02
9.600000000000000000e+01
1.010000000000000000e+02
-6.200000000000000000e+01
2.710000000000000000e+02
8.590000000000000000e+02
1.102000000000000000e+03
1.082000000000000000e+03
9.860000000000000000e+02
1.365000000000000000e+03
1.828000000000000000e+03
2.045000000000000000e+03
2.154000000000000000e+03
2.063000000000000000e+03
2.431000000000000000e+03
2.965000000000000000e+03
3.164000000000000000e+03
3.236000000000000000e+03
3.171000000000000000e+03
3.503000000000000000e+03
4.017000000000000000e+03
4.139000000000000000e+03
4.026000000000000000e+03
3.827000000000000000e+03
4.131000000000000000e+03
4.551000000000000000e+03
4.682000000000000000e+03
4.579000000000000000e+03
4.340000000000000000e+03
4.576000000000000000e+03
4.866000000000000000e+03
4.871000000000000000e+03
4.684000000000000000e+03
4.387000000000000000e+03
4.471000000000000000e+03
4.685000000000000000e+03
4.630000000000000000e+03
4.358000000000000000e+03
3.852000000000000000e+03
3.878000000000000000e+03
4.144000000000000000e+03
4.125000000000000000e+03
3.849000000000000000e+03
3.436000000000000000e+03
3.446000000000000000e+03
3.692000000000000000e+03
3.637000000000000000e+03
3.413000000000000000e+03
3.118000000000000000e+03
3.171000000000000000e+03
3.393000000000000000e+03
3.244000000000000000e+03
2.959000000000000000e+03
2.606000000000000000e+03
2.604000000000000000e+03
2.731000000000000000e+03
2.628000000000000000e+03
2.377000000000000000e+03
1.921000000000000000e+03
1.869000000000000000e+03
2.037000000000000000e+03
1.979000000000000000e+03
1.741000000000000000e+03
1.401000000000000000e+03
1.459000000000000000e+03
1.663000000000000000e+03
1.541000000000000000e+03
1.231000000000000000e+03
8.490000000000000000e+02
7.690000000000000000e+02
9.050000000000000000e+02
8.490000000000000000e+02
6.340000000000000000e+02
4.640000000000000000e+02
8.380000000000000000e+02
1.324000000000000000e+03
1.312000000000000000e+03
1.016000000000000000e+03
6.640000000000000000e+02
6.530000000000000000e+02
8.860000000000000000e+02
8.230000000000000000e+02
5.510000000000000000e+02
2.420000000000000000e+02
2.980000000000000000e+02
5.830000000000000000e+02
6.310000000000000000e+02
4.400000000000000000e+02
2.090000000000000000e+02
4.040000000000000000e+02
8.510000000000000000e+02
9.130000000000000000e+02
7.180000000000000000e+02
4.990000000000000000e+02
6.530000000000000000e+02
1.022000000000000000e+03
1.001000000000000000e+03
7.820000000000000000e+02
5.570000000000000000e+02
7.140000000000000000e+02
1.111000000000000000e+03
1.175000000000000000e+03
9.880000000000000000e+02
8.030000000000000000e+02
1.019000000000000000e+03
1.435000000000000000e+03
1.446000000000000000e+03
1.236000000000000000e+03
1.019000000000000000e+03
1.204000000000000000e+03
1.540000000000000000e+03
1.557000000000000000e+03
1.334000000000000000e+03
1.169000000000000000e+03
1.377000000000000000e+03
1.776000000000000000e+03
1.794000000000000000e+03
1.498000000000000000e+03
1.201000000000000000e+03
1.322000000000000000e+03
1.743000000000000000e+03
1.759000000000000000e+03
1.507000000000000000e+03
1.231000000000000000e+03
1.371000000000000000e+03
1.800000000000000000e+03
1.808000000000000000e+03
1.509000000000000000e+03
1.194000000000000000e+03
1.308000000000000000e+03
1.720000000000000000e+03
1.672000000000000000e+03
1.333000000000000000e+03
1.069000000000000000e+03
1.188000000000000000e+03
1.581000000000000000e+03
1.548000000000000000e+03
1.099000000000000000e+03
7.260000000000000000e+02
8.030000000000000000e+02
1.178000000000000000e+03
1.151000000000000000e+03
8.110000000000000000e+02
5.400000000000000000e+02
6.460000000000000000e+02
1.011000000000000000e+03
9.660000000000000000e+02
6.080000000000000000e+02
3.010000000000000000e+02
4.440000000000000000e+02
8.380000000000000000e+02
8.190000000000000000e+02
4.330000000000000000e+02
8.900000000000000000e+01
1.930000000000000000e+02
6.180000000000000000e+02
6.520000000000000000e+02
3.180000000000000000e+02
5.900000000000000000e+01
2.250000000000000000e+02
6.640000000000000000e+02
6.360000000000000000e+02
3.290000000000000000e+02
7.600000000000000000e+01
2.010000000000000000e+02
5.680000000000000000e+02
5.120000000000000000e+02
1.460000000000000000e+02
-1.670000000000000000e+02
-4.000000000000000000e+01
4.440000000000000000e+02
4.980000000000000000e+02
1.470000000000000000e+02
-1.240000000000000000e+02
5.800000000000000000e+01
5.390000000000000000e+02
6.040000000000000000e+02
2.410000000000000000e+02
-7.900000000000000000e+01
9.500000000000000000e+01
5.860000000000000000e+02
6.050000000000000000e+02
1.490000000000000000e+02
-1.570000000000000000e+02
3.100000000000000000e+01
5.590000000000000000e+02
6.190000000000000000e+02
1.880000000000000000e+02
-6.000000000000000000e+01
1.890000000000000000e+02
7.020000000000000000e+02
7.350000000000000000e+02
2.700000000000000000e+02
-3.900000000000000000e+01
1.590000000000000000e+02
6.930000000000000000e+02
7.580000000000000000e+02
3.030000000000000000e+02
-4.500000000000000000e+01
1.480000000000000000e+02
6.480000000000000000e+02
7.030000000000000000e+02
2.680000000000000000e+02
-5.100000000000000000e+01
1.620000000000000000e+02
7.440000000000000000e+02
8.090000000000000000e+02
3.130000000000000000e+02
-5.000000000000000000e+00
1.980000000000000000e+02
7.340000000000000000e+02
7.520000000000000000e+02
2.560000000000000000e+02
-1.210000000000000000e+02
5.400000000000000000e+01
6.210000000000000000e+02
7.050000000000000000e+02
1.630000000000000000e+02
-2.490000000000000000e+02
-4.100000000000000000e+01
5.710000000000000000e+02
6.430000000000000000e+02
5.900000000000000000e+01
-4.220000000000000000e+02
-2.980000000000000000e+02
2.260000000000000000e+02
2.370000000000000000e+02
-3.920000000000000000e+02
-7.320000000000000000e+02
-3.970000000000000000e+02
3.420000000000000000e+02
7.120000000000000000e+02
4.960000000000000000e+02
1.980000000000000000e+02
2.970000000000000000e+02
8.680000000000000000e+02
1.038000000000000000e+03
4.690000000000000000e+02
-1.020000000000000000e+02
2.100000000000000000e+01
6.010000000000000000e+02
7.340000000000000000e+02
2.320000000000000000e+02
-2.270000000000000000e+02
-3.200000000000000000e+01
6.100000000000000000e+02
7.610000000000000000e+02
2.680000000000000000e+02
-1.570000000000000000e+02
-2.600000000000000000e+01
5.710000000000000000e+02
6.930000000000000000e+02
8.600000000000000000e+01
-4.470000000000000000e+02
-3.420000000000000000e+02
2.400000000000000000e+02
3.990000000000000000e+02
-1.600000000000000000e+02
-6.710000000000000000e+02
-4.890000000000000000e+02
2.030000000000000000e+02
3.830000000000000000e+02
-1.780000000000000000e+02
-7.060000000000000000e+02
-5.820000000000000000e+02
2.400000000000000000e+01
2.060000000000000000e+02
-3.130000000000000000e+02
-8.520000000000000000e+02
-7.270000000000000000e+02
-5.800000000000000000e+01
1.810000000000000000e+02
-3.530000000000000000e+02
-9.110000000000000000e+02
-8.130000000000000000e+02
-1.720000000000000000e+02
-1.400000000000000000e+01
-5.840000000000000000e+02
-1.146000000000000000e+03
-1.070000000000000000e+03
-4.420000000000000000e+02
-2.210000000000000000e+02
-7.740000000000000000e+02
-1.321000000000000000e+03
-1.178000000000000000e+03
-4.720000000000000000e+02
-2.150000000000000000e+02
-7.520000000000000000e+02
-1.312000000000000000e+03
-1.200000000000000000e+03
-5.510000000000000000e+02
-3.350000000000000000e+02
-8.840000000000000000e+02
-1.490000000000000000e+03
-1.422000000000000000e+03
-7.710000000000000000e+02
-5.190000000000000000e+02
-1.056000000000000000e+03
-1.707000000000000000e+03
-1.668000000000000000e+03
-9.920000000000000000e+02
-7.270000000000000000e+02
-1.257000000000000000e+03
-1.855000000000000000e+03
-1.739000000000000000e+03
-1.103000000000000000e+03
-8.800000000000000000e+02
-1.449000000000000000e+03
-2.146000000000000000e+03
-2.066000000000000000e+03
-1.369000000000000000e+03
-1.013000000000000000e+03
-1.529000000000000000e+03
-2.229000000000000000e+03
-2.210000000000000000e+03
-1.528000000000000000e+03
-1.232000000000000000e+03
-1.734000000000000000e+03
-2.313000000000000000e+03
-2.233000000000000000e+03
-1.546000000000000000e+03
-1.236000000000000000e+03
-1.741000000000000000e+03
-2.401000000000000000e+03
-2.337000000000000000e+03
-1.631000000000000000e+03
-1.293000000000000000e+03
-1.822000000000000000e+03
-2.507000000000000000e+03
-2.415000000000000000e+03
-1.657000000000000000e+03
-1.325000000000000000e+03
-1.821000000000000000e+03
-2.506000000000000000e+03
-2.544000000000000000e+03
-1.883000000000000000e+03
-1.546000000000000000e+03
-2.018000000000000000e+03
-2.679000000000000000e+03
-2.619000000000000000e+03
-1.906000000000000000e+03
-1.579000000000000000e+03
-2.116000000000000000e+03
-2.884000000000000000e+03
-2.907000000000000000e+03
-2.239000000000000000e+03
-1.896000000000000000e+03
-2.404000000000000000e+03
-3.118000000000000000e+03
-3.126000000000000000e+03
-2.376000000000000000e+03
-1.899000000000000000e+03
-2.350000000000000000e+03
-3.090000000000000000e+03
-3.156000000000000000e+03
-2.547000000000000000e+03
-2.202000000000000000e+03
-2.724000000000000000e+03
-3.438000000000000000e+03
-3.396000000000000000e+03
-2.706000000000000000e+03
-2.263000000000000000e+03
-2.740000000000000000e+03
-3.481000000000000000e+03
-3.566000000000000000e+03
-2.869000000000000000e+03
-2.427000000000000000e+03
-2.936000000000000000e+03
-3.662000000000000000e+03
-3.649000000000000000e+03
-2.973000000000000000e+03
-2.587000000000000000e+03
-3.088000000000000000e+03
-3.875000000000000000e+03
-3.924000000000000000e+03
-3.266000000000000000e+03
-2.881000000000000000e+03
-3.411000000000000000e+03
-4.183000000000000000e+03
-4.231000000000000000e+03
-3.616000000000000000e+03
-3.232000000000000000e+03
-3.812000000000000000e+03
-4.687000000000000000e+03
-4.807000000000000000e+03
-4.232000000000000000e+03
-3.843000000000000000e+03
-4.282000000000000000e+03
-5.036000000000000000e+03
-4.964000000000000000e+03
-3.906000000000000000e+03
-3.159000000000000000e+03
-3.585000000000000000e+03
-4.482000000000000000e+03
-4.692000000000000000e+03
-4.083000000000000000e+03
-3.646000000000000000e+03
-4.152000000000000000e+03
-5.011000000000000000e+03
-5.158000000000000000e+03
-4.512000000000000000e+03
-4.014000000000000000e+03
-4.450000000000000000e+03
-5.304000000000000000e+03
-5.453000000000000000e+03
-4.784000000000000000e+03
-4.267000000000000000e+03
-4.690000000000000000e+03
-5.567000000000000000e+03
-5.742000000000000000e+03
-5.055000000000000000e+03
-4.559000000000000000e+03
-4.934000000000000000e+03
-5.744000000000000000e+03
-5.891000000000000000e+03
-5.194000000000000000e+03
-4.664000000000000000e+03
-5.064000000000000000e+03
-5.901000000000000000e+03
-6.024000000000000000e+03
-5.333000000000000000e+03
-4.801000000000000000e+03
-5.207000000000000000e+03
-6.081000000000000000e+03
-6.334000000000000000e+03
-5.743000000000000000e+03
-5.227000000000000000e+03
-5.598000000000000000e+03
-6.502000000000000000e+03
-6.734000000000000000e+03
-6.044000000000000000e+03
-5.461000000000000000e+03
-5.829000000000000000e+03
-6.702000000000000000e+03
-6.919000000000000000e+03
-6.262000000000000000e+03
-5.719000000000000000e+03
-6.119000000000000000e+03
-7.075000000000000000e+03
-7.374000000000000000e+03
-6.742000000000000000e+03
-6.151000000000000000e+03
-6.519000000000000000e+03
-7.425000000000000000e+03
-7.677000000000000000e+03
-6.994000000000000000e+03
-6.372000000000000000e+03
-6.746000000000000000e+03
-7.649000000000000000e+03
-7.868000000000000000e+03
-7.224000000000000000e+03
-6.657000000000000000e+03
-6.989000000000000000e+03
-7.892000000000000000e+03
-8.147000000000000000e+03
-7.513000000000000000e+03
-6.936000000000000000e+03
-7.306000000000000000e+03
-8.196000000000000000e+03
-8.397000000000000000e+03
-7.721000000000000000e+03
-7.142000000000000000e+03
-7.542000000000000000e+03
-8.467000000000000000e+03
-8.712000000000000000e+03
-8.077000000000000000e+03
-7.411000000000000000e+03
-7.676000000000000000e+03
-8.563000000000000000e+03
-8.819000000000000000e+03
-8.164000000000000000e+03
-7.586000000000000000e+03
-7.931000000000000000e+03
-8.847000000000000000e+03
-9.106000000000000000e+03
-8.479000000000000000e+03
-7.896000000000000000e+03
-8.212000000000000000e+03
-9.154000000000000000e+03
-9.485000000000000000e+03
-8.903000000000000000e+03
-8.305000000000000000e+03
-8.612000000000000000e+03
-9.547000000000000000e+03
-9.862000000000000000e+03
-9.263000000000000000e+03
-8.629000000000000000e+03
-8.921000000000000000e+03
-9.891000000000000000e+03
-1.025300000000000000e+04
-9.649000000000000000e+03
-9.018000000000000000e+03
-9.244000000000000000e+03
-1.013900000000000000e+04
-1.044600000000000000e+04
-9.840000000000000000e+03
-9.164000000000000000e+03
-9.432000000000000000e+03
-1.037400000000000000e+04
-1.069600000000000000e+04
-1.002000000000000000e+04
-9.310000000000000000e+03
-9.573000000000000000e+03
-1.052800000000000000e+04
-1.086900000000000000e+04
-1.023700000000000000e+04
-9.545000000000000000e+03
-9.746000000000000000e+03
-1.068700000000000000e+04
-1.106100000000000000e+04
-1.042200000000000000e+04
-9.734000000000000000e+03
-9.989000000000000000e+03
-1.092700000000000000e+04
-1.133500000000000000e+04
-1.070300000000000000e+04
-9.966000000000000000e+03
-1.020200000000000000e+04
-1.119500000000000000e+04
-1.164400000000000000e+04
-1.097600000000000000e+04
-1.021600000000000000e+04
-1.045700000000000000e+04
-1.142300000000000000e+04
-1.180200000000000000e+04
-1.118200000000000000e+04
-1.041700000000000000e+04
-1.061800000000000000e+04
-1.157700000000000000e+04
-1.200900000000000000e+04
-1.131900000000000000e+04
-1.054000000000000000e+04
-1.074100000000000000e+04
-1.173000000000000000e+04
-1.221900000000000000e+04
-1.157200000000000000e+04
-1.082100000000000000e+04
-1.101500000000000000e+04
-1.210100000000000000e+04
-1.270700000000000000e+04
-1.222100000000000000e+04
-1.150600000000000000e+04
-1.175900000000000000e+04
-1.288000000000000000e+04
-1.343200000000000000e+04
-1.270900000000000000e+04
-1.172100000000000000e+04
-1.160900000000000000e+04
-1.236300000000000000e+04
-1.277200000000000000e+04
-1.216100000000000000e+04
-1.139100000000000000e+04
-1.157800000000000000e+04
-1.270200000000000000e+04
-1.330900000000000000e+04
-1.274900000000000000e+04
-1.192300000000000000e+04
-1.204400000000000000e+04
-1.303600000000000000e+04
-1.355200000000000000e+04
-1.293100000000000000e+04
-1.211000000000000000e+04
-1.223000000000000000e+04
-1.322100000000000000e+04
-1.378700000000000000e+04
-1.320200000000000000e+04
-1.233100000000000000e+04
-1.239400000000000000e+04
-1.335200000000000000e+04
-1.390700000000000000e+04
-1.331700000000000000e+04
-1.249200000000000000e+04
-1.257200000000000000e+04
-1.358200000000000000e+04
-1.421100000000000000e+04
-1.362400000000000000e+04
-1.278100000000000000e+04
-1.286600000000000000e+04
-1.383600000000000000e+04
-1.445900000000000000e+04
-1.386500000000000000e+04
-1.298200000000000000e+04
-1.298400000000000000e+04
-1.394100000000000000e+04
-1.456400000000000000e+04
-1.400700000000000000e+04
-1.316000000000000000e+04
-1.319600000000000000e+04
-1.417900000000000000e+04
-1.478700000000000000e+04
-1.415600000000000000e+04
-1.315000000000000000e+04
-1.309200000000000000e+04
-1.405000000000000000e+04
-1.474400000000000000e+04
-1.423400000000000000e+04
-1.335500000000000000e+04
-1.333900000000000000e+04
-1.437800000000000000e+04
-1.510200000000000000e+04
-1.455400000000000000e+04
-1.362100000000000000e+04
-1.357100000000000000e+04
-1.454400000000000000e+04
-1.528300000000000000e+04
-1.480700000000000000e+04
-1.388200000000000000e+04
-1.379600000000000000e+04
-1.473800000000000000e+04
-1.548000000000000000e+04
-1.502400000000000000e+04
-1.406800000000000000e+04
-1.395900000000000000e+04
-1.490100000000000000e+04
-1.569000000000000000e+04
-1.524100000000000000e+04
-1.429400000000000000e+04
-1.421600000000000000e+04
-1.519900000000000000e+04
-1.599400000000000000e+04
-1.556700000000000000e+04
-1.463100000000000000e+04
-1.446400000000000000e+04
-1.543100000000000000e+04
-1.625100000000000000e+04
-1.583200000000000000e+04
-1.487900000000000000e+04
-1.469300000000000000e+04
-1.562900000000000000e+04
-1.642900000000000000e+04
-1.598600000000000000e+04
-1.500200000000000000e+04
-1.481100000000000000e+04
-1.571400000000000000e+04
-1.653800000000000000e+04
-1.610500000000000000e+04
-1.511300000000000000e+04
-1.493800000000000000e+04
-1.592800000000000000e+04
-1.684800000000000000e+04
-1.642900000000000000e+04
-1.539200000000000000e+04
-1.514500000000000000e+04
-1.604800000000000000e+04
-1.693700000000000000e+04
-1.652100000000000000e+04
-1.546600000000000000e+04
-1.520400000000000000e+04
-1.612800000000000000e+04
-1.707600000000000000e+04
-1.666600000000000000e+04
-1.554200000000000000e+04
-1.527500000000000000e+04
-1.624600000000000000e+04
-1.718800000000000000e+04
-1.681900000000000000e+04
-1.573300000000000000e+04
-1.543500000000000000e+04
-1.635900000000000000e+04
-1.732300000000000000e+04
-1.693600000000000000e+04
-1.583600000000000000e+04
-1.555300000000000000e+04
-1.646600000000000000e+04
-1.742000000000000000e+04
-1.702500000000000000e+04
-1.592600000000000000e+04
-1.560300000000000000e+04
-1.647000000000000000e+04
-1.746300000000000000e+04
-1.708900000000000000e+04
-1.598600000000000000e+04
-1.568100000000000000e+04
-1.667700000000000000e+04
-1.771500000000000000e+04
-1.736700000000000000e+04
-1.621700000000000000e+04
-1.582000000000000000e+04
-1.675400000000000000e+04
-1.781500000000000000e+04
-1.738700000000000000e+04
-1.615700000000000000e+04
-1.574700000000000000e+04
-1.675100000000000000e+04
-1.793400000000000000e+04
-1.765600000000000000e+04
-1.650200000000000000e+04
-1.609800000000000000e+04
-1.705900000000000000e+04
-1.822800000000000000e+04
-1.794100000000000000e+04
-1.678600000000000000e+04
-1.632600000000000000e+04
-1.722900000000000000e+04
-1.848000000000000000e+04
-1.823200000000000000e+04
-1.708100000000000000e+04
-1.675300000000000000e+04
-1.784900000000000000e+04
-1.918100000000000000e+04
-1.903900000000000000e+04
-1.790600000000000000e+04
-1.736200000000000000e+04
-1.809900000000000000e+04
-1.897900000000000000e+04
-1.838400000000000000e+04
-1.701400000000000000e+04
-1.652900000000000000e+04
-1.761200000000000000e+04
-1.898800000000000000e+04
-1.886400000000000000e+04
-1.770200000000000000e+04
-1.725900000000000000e+04
-1.820100000000000000e+04
-1.953600000000000000e+04
-1.935900000000000000e+04
-1.808500000000000000e+04
-1.749200000000000000e+04
-1.835600000000000000e+04
-1.965100000000000000e+04
-1.955500000000000000e+04
-1.836000000000000000e+04
-1.774100000000000000e+04
-1.857100000000000000e+04
-1.985700000000000000e+04
-1.968800000000000000e+04
-1.848500000000000000e+04
-1.792900000000000000e+04
-1.878700000000000000e+04
-2.013000000000000000e+04
-2.002900000000000000e+04
-1.879400000000000000e+04
-1.819200000000000000e+04
-1.903200000000000000e+04
-2.036000000000000000e+04
-2.028800000000000000e+04
-1.908300000000000000e+04
-1.842400000000000000e+04
-1.925000000000000000e+04
-2.063900000000000000e+04
-2.065000000000000000e+04
-1.945600000000000000e+04
-1.880600000000000000e+04
-1.960000000000000000e+04
-2.095600000000000000e+04
-2.093400000000000000e+04
-1.979100000000000000e+04
-1.910000000000000000e+04
-1.989700000000000000e+04
-2.125100000000000000e+04
-2.124700000000000000e+04
-2.004700000000000000e+04
-1.937300000000000000e+04
-2.019200000000000000e+04
-2.164900000000000000e+04
-2.171100000000000000e+04
-2.053600000000000000e+04
-1.982900000000000000e+04
-2.054300000000000000e+04
-2.193300000000000000e+04
-2.199900000000000000e+04
-2.080200000000000000e+04
-2.012400000000000000e+04
-2.087900000000000000e+04
-2.222700000000000000e+04
-2.231200000000000000e+04
-2.114400000000000000e+04
-2.038700000000000000e+04
-2.113200000000000000e+04
-2.256700000000000000e+04
-2.273700000000000000e+04
-2.162200000000000000e+04
-2.086900000000000000e+04
-2.158800000000000000e+04
-2.300800000000000000e+04
-2.307200000000000000e+04
-2.179400000000000000e+04
-2.098400000000000000e+04
-2.170900000000000000e+04
-2.323600000000000000e+04
-2.343400000000000000e+04
-2.220200000000000000e+04
-2.134900000000000000e+04
-2.198900000000000000e+04
-2.343700000000000000e+04
-2.364300000000000000e+04
-2.248900000000000000e+04
-2.163900000000000000e+04
-2.225200000000000000e+04
-2.370000000000000000e+04
-2.388800000000000000e+04
-2.272100000000000000e+04
-2.188700000000000000e+04
-2.245400000000000000e+04
-2.380600000000000000e+04
-2.404700000000000000e+04
-2.282900000000000000e+04
-2.191400000000000000e+04
-2.252600000000000000e+04
-2.399900000000000000e+04
-2.429700000000000000e+04
-2.313400000000000000e+04
-2.224200000000000000e+04
-2.283300000000000000e+04
-2.429200000000000000e+04
-2.460800000000000000e+04
-2.350100000000000000e+04
-2.254700000000000000e+04
-2.306100000000000000e+04
-2.452100000000000000e+04
-2.488700000000000000e+04
-2.373700000000000000e+04
-2.283100000000000000e+04
-2.334800000000000000e+04
-2.479500000000000000e+04
-2.518700000000000000e+04
-2.403700000000000000e+04
-2.307200000000000000e+04
-2.358300000000000000e+04
-2.500200000000000000e+04
-2.538200000000000000e+04
-2.424900000000000000e+04
-2.329700000000000000e+04
-2.378600000000000000e+04
-2.523900000000000000e+04
-2.570700000000000000e+04
-2.453600000000000000e+04
-2.345900000000000000e+04
-2.387600000000000000e+04
-2.533400000000000000e+04
-2.580500000000000000e+04
-2.465000000000000000e+04
-2.355900000000000000e+04
-2.394700000000000000e+04
-2.538700000000000000e+04
-2.586000000000000000e+04
-2.476100000000000000e+04
-2.371100000000000000e+04
-2.412600000000000000e+04
-2.560600000000000000e+04
-2.614500000000000000e+04
-2.505200000000000000e+04
-2.400100000000000000e+04
-2.436600000000000000e+04
-2.582700000000000000e+04
-2.638000000000000000e+04
-2.529500000000000000e+04
-2.419900000000000000e+04
-2.459600000000000000e+04
-2.607400000000000000e+04
-2.660400000000000000e+04
-2.539500000000000000e+04
-2.422700000000000000e+04
-2.456600000000000000e+04
-2.606400000000000000e+04
-2.673100000000000000e+04
-2.579400000000000000e+04
-2.480600000000000000e+04
-2.519400000000000000e+04
-2.674700000000000000e+04
-2.745600000000000000e+04
-2.623200000000000000e+04
-2.483400000000000000e+04
-2.469800000000000000e+04
-2.576200000000000000e+04
-2.635800000000000000e+04
-2.539000000000000000e+04
-2.434500000000000000e+04
-2.470200000000000000e+04
-2.628200000000000000e+04
-2.703100000000000000e+04
-2.601800000000000000e+04
-2.472900000000000000e+04
-2.474000000000000000e+04
-2.594800000000000000e+04
-2.634000000000000000e+04
-2.522500000000000000e+04
-2.329900000000000000e+04
-2.328200000000000000e+04
-2.503200000000000000e+04
-2.724700000000000000e+04
-2.709200000000000000e+04
-2.493100000000000000e+04
-2.478800000000000000e+04
-2.605100000000000000e+04
-2.570700000000000000e+04
-2.395900000000000000e+04
-2.248400000000000000e+04
-2.233000000000000000e+04
-2.272900000000000000e+04
-2.279700000000000000e+04
-2.235100000000000000e+04
-2.192100000000000000e+04
-2.224100000000000000e+04
-2.416900000000000000e+04
-2.519900000000000000e+04
-2.411300000000000000e+04
-2.342700000000000000e+04
-2.243400000000000000e+04
-2.333700000000000000e+04
-2.396700000000000000e+04
-2.155000000000000000e+04
-2.068200000000000000e+04
-2.105900000000000000e+04
-2.484600000000000000e+04
-2.622000000000000000e+04
-2.159900000000000000e+04
-1.846200000000000000e+04
-1.954800000000000000e+04
-2.254800000000000000e+04
-2.322300000000000000e+04
-2.072200000000000000e+04
-1.845300000000000000e+04
-1.646100000000000000e+04
-1.633500000000000000e+04
-1.708700000000000000e+04
-1.443400000000000000e+04
-1.135900000000000000e+04
-9.521000000000000000e+03
-8.830000000000000000e+03
-8.970000000000000000e+03
-6.292000000000000000e+03
-1.826000000000000000e+03
-5.400000000000000000e+02
-8.060000000000000000e+02
1.719000000000000000e+03
5.799000000000000000e+03
9.008000000000000000e+03
9.675000000000000000e+03
8.427000000000000000e+03
6.951000000000000000e+03
9.223000000000000000e+03
1.231400000000000000e+04
1.348100000000000000e+04
1.209800000000000000e+04
1.005400000000000000e+04
1.253100000000000000e+04
1.549800000000000000e+04
1.592900000000000000e+04
1.614700000000000000e+04
1.512100000000000000e+04
1.512700000000000000e+04
1.867500000000000000e+04
1.957900000000000000e+04
1.815600000000000000e+04
1.684400000000000000e+04
1.853700000000000000e+04
2.032700000000000000e+04
2.205600000000000000e+04
1.980600000000000000e+04
1.844900000000000000e+04
2.053200000000000000e+04
2.496600000000000000e+04
2.456500000000000000e+04
2.130300000000000000e+04
1.988500000000000000e+04
2.146400000000000000e+04
2.358300000000000000e+04
2.390300000000000000e+04
2.181200000000000000e+04
2.020500000000000000e+04
2.213000000000000000e+04
2.366500000000000000e+04
2.342600000000000000e+04
2.318100000000000000e+04
2.117100000000000000e+04
2.138200000000000000e+04
2.382500000000000000e+04
2.435600000000000000e+04
2.190200000000000000e+04
2.116000000000000000e+04
2.130600000000000000e+04
2.489400000000000000e+04
2.511600000000000000e+04
2.304200000000000000e+04
2.146900000000000000e+04
2.298600000000000000e+04
2.488300000000000000e+04
2.484000000000000000e+04
2.296200000000000000e+04
2.134800000000000000e+04
2.250300000000000000e+04
2.504100000000000000e+04
2.573400000000000000e+04
2.386100000000000000e+04
2.154400000000000000e+04
2.240200000000000000e+04
2.495100000000000000e+04
2.566500000000000000e+04
2.386500000000000000e+04
2.181300000000000000e+04
