3.779000000000000000e+03
3.247000000000000000e+03
6.904000000000000000e+03
1.103500000000000000e+04
9.030000000000000000e+03
5.020000000000000000e+03
4.351000000000000000e+03
7.663000000000000000e+03
1.169600000000000000e+04
1.043300000000000000e+04
6.406000000000000000e+03
5.624000000000000000e+03
8.935000000000000000e+03
1.301600000000000000e+04
1.165800000000000000e+04
7.919000000000000000e+03
6.619000000000000000e+03
9.703000000000000000e+03
1.350000000000000000e+04
1.224300000000000000e+04
8.305000000000000000e+03
7.316000000000000000e+03
1.032200000000000000e+04
1.426900000000000000e+04
1.296300000000000000e+04
8.581000000000000000e+03
7.362000000000000000e+03
1.057800000000000000e+04
1.461800000000000000e+04
1.319300000000000000e+04
8.937000000000000000e+03
7.800000000000000000e+03
1.067100000000000000e+04
1.415400000000000000e+04
1.291700000000000000e+04
9.243000000000000000e+03
8.269000000000000000e+03
1.081300000000000000e+04
1.358400000000000000e+04
1.250800000000000000e+04
9.945000000000000000e+03
9.054000000000000000e+03
1.011300000000000000e+04
1.359100000000000000e+04
1.276100000000000000e+04
8.365000000000000000e+03
6.733000000000000000e+03
9.451000000000000000e+03
1.333400000000000000e+04
1.265600000000000000e+04
8.815000000000000000e+03
7.576000000000000000e+03
1.069000000000000000e+04
1.486700000000000000e+04
1.247600000000000000e+04
6.747000000000000000e+03
4.789000000000000000e+03
6.885000000000000000e+03
1.097100000000000000e+04
1.078000000000000000e+04
6.349000000000000000e+03
4.009000000000000000e+03
6.564000000000000000e+03
1.010400000000000000e+04
9.493000000000000000e+03
6.024000000000000000e+03
4.100000000000000000e+03
6.428000000000000000e+03
1.085000000000000000e+04
1.025900000000000000e+04
5.100000000000000000e+03
2.703000000000000000e+03
5.223000000000000000e+03
9.346000000000000000e+03
9.241000000000000000e+03
4.906000000000000000e+03
2.836000000000000000e+03
5.100000000000000000e+03
8.743000000000000000e+03
8.469000000000000000e+03
3.778000000000000000e+03
1.467000000000000000e+03
3.535000000000000000e+03
8.285000000000000000e+03
8.444000000000000000e+03
3.923000000000000000e+03
1.577000000000000000e+03
3.479000000000000000e+03
7.298000000000000000e+03
7.179000000000000000e+03
3.124000000000000000e+03
1.383000000000000000e+03
2.845000000000000000e+03
6.876000000000000000e+03
7.246000000000000000e+03
2.516000000000000000e+03
3.940000000000000000e+02
2.528000000000000000e+03
6.648000000000000000e+03
6.619000000000000000e+03
2.099000000000000000e+03
-2.600000000000000000e+01
2.247000000000000000e+03
6.324000000000000000e+03
6.344000000000000000e+03
1.683000000000000000e+03
-1.134000000000000000e+03
1.003000000000000000e+03
5.790000000000000000e+03
5.905000000000000000e+03
3.810000000000000000e+02
-2.046000000000000000e+03
-5.000000000000000000e+00
4.005000000000000000e+03
4.288000000000000000e+03
-2.040000000000000000e+02
-2.944000000000000000e+03
-7.520000000000000000e+02
4.009000000000000000e+03
4.571000000000000000e+03
-3.360000000000000000e+02
-2.769000000000000000e+03
-6.660000000000000000e+02
3.984000000000000000e+03
4.786000000000000000e+03
1.410000000000000000e+02
-2.429000000000000000e+03
-3.110000000000000000e+02
4.279000000000000000e+03
5.361000000000000000e+03
8.090000000000000000e+02
-1.967000000000000000e+03
-2.110000000000000000e+02
3.849000000000000000e+03
4.783000000000000000e+03
5.490000000000000000e+02
-2.234000000000000000e+03
-5.370000000000000000e+02
3.791000000000000000e+03
4.641000000000000000e+03
-3.510000000000000000e+02
-3.262000000000000000e+03
-8.420000000000000000e+02
4.017000000000000000e+03
5.026000000000000000e+03
4.040000000000000000e+02
-2.293000000000000000e+03
-4.590000000000000000e+02
3.583000000000000000e+03
4.585000000000000000e+03
7.600000000000000000e+01
-2.990000000000000000e+03
-1.662000000000000000e+03
2.349000000000000000e+03
4.327000000000000000e+03
3.450000000000000000e+02
-2.718000000000000000e+03
-1.336000000000000000e+03
2.656000000000000000e+03
4.138000000000000000e+03
1.340000000000000000e+02
-3.491000000000000000e+03
-2.173000000000000000e+03
2.876000000000000000e+03
4.487000000000000000e+03
3.130000000000000000e+02
-2.731000000000000000e+03
-1.528000000000000000e+03
2.586000000000000000e+03
4.185000000000000000e+03
7.600000000000000000e+01
-3.112000000000000000e+03
-1.516000000000000000e+03
2.378000000000000000e+03
3.949000000000000000e+03
3.610000000000000000e+02
-2.656000000000000000e+03
-1.549000000000000000e+03
2.368000000000000000e+03
4.222000000000000000e+03
4.790000000000000000e+02
-2.696000000000000000e+03
-1.777000000000000000e+03
2.301000000000000000e+03
4.625000000000000000e+03
6.940000000000000000e+02
-2.856000000000000000e+03
-1.713000000000000000e+03
2.543000000000000000e+03
4.536000000000000000e+03
2.050000000000000000e+02
-3.761000000000000000e+03
-2.406000000000000000e+03
2.238000000000000000e+03
4.086000000000000000e+03
1.630000000000000000e+02
-3.356000000000000000e+03
-2.342000000000000000e+03
1.867000000000000000e+03
3.923000000000000000e+03
4.630000000000000000e+02
-3.108000000000000000e+03
-2.217000000000000000e+03
2.074000000000000000e+03
4.194000000000000000e+03
6.160000000000000000e+02
-2.642000000000000000e+03
-1.531000000000000000e+03
2.668000000000000000e+03
5.123000000000000000e+03
1.607000000000000000e+03
-1.860000000000000000e+03
-9.990000000000000000e+02
3.043000000000000000e+03
5.609000000000000000e+03
1.944000000000000000e+03
-1.714000000000000000e+03
-5.210000000000000000e+02
3.928000000000000000e+03
6.736000000000000000e+03
3.717000000000000000e+03
5.400000000000000000e+01
7.040000000000000000e+02
4.559000000000000000e+03
7.466000000000000000e+03
3.779000000000000000e+03
1.900000000000000000e+01
1.426000000000000000e+03
5.658000000000000000e+03
7.895000000000000000e+03
4.653000000000000000e+03
1.049000000000000000e+03
1.791000000000000000e+03
6.089000000000000000e+03
9.177000000000000000e+03
5.931000000000000000e+03
2.504000000000000000e+03
3.454000000000000000e+03
7.136000000000000000e+03
1.021300000000000000e+04
7.583000000000000000e+03
5.236000000000000000e+03
5.461000000000000000e+03
8.328000000000000000e+03
1.122900000000000000e+04
8.550000000000000000e+03
5.061000000000000000e+03
5.521000000000000000e+03
9.534000000000000000e+03
1.328600000000000000e+04
1.070200000000000000e+04
7.282000000000000000e+03
7.856000000000000000e+03
1.241900000000000000e+04
1.545500000000000000e+04
1.300000000000000000e+04
-7.207200000000000000e+04
-6.899400000000000000e+04
-6.540900000000000000e+04
-6.720300000000000000e+04
-7.135900000000000000e+04
-7.212100000000000000e+04
-6.900900000000000000e+04
-6.538100000000000000e+04
-6.704800000000000000e+04
-7.124400000000000000e+04
-7.208400000000000000e+04
-6.907400000000000000e+04
-6.542600000000000000e+04
-6.701600000000000000e+04
-7.114300000000000000e+04
-7.202600000000000000e+04
-6.905600000000000000e+04
-6.535900000000000000e+04
-6.679600000000000000e+04
-7.100900000000000000e+04
-7.202400000000000000e+04
-6.924600000000000000e+04
-6.561900000000000000e+04
-6.698500000000000000e+04
-7.119600000000000000e+04
-7.232600000000000000e+04
-6.948300000000000000e+04
-6.567700000000000000e+04
-6.676600000000000000e+04
-7.066700000000000000e+04
-7.142100000000000000e+04
-6.847200000000000000e+04
-6.485100000000000000e+04
-6.621000000000000000e+04
-7.047200000000000000e+04
-7.175200000000000000e+04
-6.911300000000000000e+04
-6.539500000000000000e+04
-6.649700000000000000e+04
-7.065400000000000000e+04
-7.191500000000000000e+04
-6.927300000000000000e+04
-6.544500000000000000e+04
-6.642500000000000000e+04
-7.063400000000000000e+04
-7.193400000000000000e+04
-6.926400000000000000e+04
-6.547400000000000000e+04
-6.632400000000000000e+04
-7.056700000000000000e+04
-7.198700000000000000e+04
-6.943100000000000000e+04
-6.563900000000000000e+04
-6.641400000000000000e+04
-7.065800000000000000e+04
-7.213400000000000000e+04
-6.957900000000000000e+04
-6.577700000000000000e+04
-6.653100000000000000e+04
-7.077900000000000000e+04
-7.226800000000000000e+04
-6.964500000000000000e+04
-6.568500000000000000e+04
-6.628900000000000000e+04
-7.048900000000000000e+04
-7.197500000000000000e+04
-6.945400000000000000e+04
-6.547100000000000000e+04
-6.593900000000000000e+04
-7.012400000000000000e+04
-7.173700000000000000e+04
-6.926900000000000000e+04
-6.532100000000000000e+04
-6.576600000000000000e+04
-7.004900000000000000e+04
-7.176900000000000000e+04
-6.938000000000000000e+04
-6.546100000000000000e+04
-6.585400000000000000e+04
-7.017400000000000000e+04
-7.200800000000000000e+04
-6.973000000000000000e+04
-6.574700000000000000e+04
-6.598400000000000000e+04
-7.024900000000000000e+04
-7.202600000000000000e+04
-6.971800000000000000e+04
-6.575100000000000000e+04
-6.585600000000000000e+04
-7.013900000000000000e+04
-7.205100000000000000e+04
-6.980600000000000000e+04
-6.575300000000000000e+04
-6.578100000000000000e+04
-7.010900000000000000e+04
-7.212200000000000000e+04
-6.994300000000000000e+04
-6.589400000000000000e+04
-6.577700000000000000e+04
-6.992800000000000000e+04
-7.191400000000000000e+04
-6.979300000000000000e+04
-6.578200000000000000e+04
-6.562200000000000000e+04
-6.991700000000000000e+04
-7.205400000000000000e+04
-6.998400000000000000e+04
-6.589900000000000000e+04
-6.568200000000000000e+04
-6.996200000000000000e+04
-7.215700000000000000e+04
-7.013700000000000000e+04
-6.610900000000000000e+04
-6.573100000000000000e+04
-6.999000000000000000e+04
-7.228000000000000000e+04
-7.029700000000000000e+04
-6.632500000000000000e+04
-6.587400000000000000e+04
-7.006700000000000000e+04
-7.235500000000000000e+04
-7.040100000000000000e+04
-6.636400000000000000e+04
-6.584200000000000000e+04
-6.997600000000000000e+04
-7.229100000000000000e+04
-7.042700000000000000e+04
-6.638800000000000000e+04
-6.573500000000000000e+04
-6.995700000000000000e+04
-7.239700000000000000e+04
-7.059900000000000000e+04
-6.654500000000000000e+04
-6.580600000000000000e+04
-6.994100000000000000e+04
-7.246400000000000000e+04
-7.071700000000000000e+04
-6.668300000000000000e+04
-6.585900000000000000e+04
-6.996000000000000000e+04
-7.252100000000000000e+04
-7.083800000000000000e+04
-6.680500000000000000e+04
-6.593200000000000000e+04
-7.009100000000000000e+04
-7.273400000000000000e+04
-7.108400000000000000e+04
-6.702400000000000000e+04
-6.595200000000000000e+04
-6.997300000000000000e+04
-7.268500000000000000e+04
-7.123600000000000000e+04
-6.734500000000000000e+04
-6.634600000000000000e+04
-7.047000000000000000e+04
-7.316600000000000000e+04
-7.165400000000000000e+04
-6.765400000000000000e+04
-6.644200000000000000e+04
-7.043200000000000000e+04
-7.320400000000000000e+04
-7.178100000000000000e+04
-6.780500000000000000e+04
-6.651500000000000000e+04
-7.045700000000000000e+04
-7.324400000000000000e+04
-7.189700000000000000e+04
-6.796800000000000000e+04
-6.654200000000000000e+04
-7.046300000000000000e+04
-7.337100000000000000e+04
-7.201900000000000000e+04
-6.808200000000000000e+04
-6.661800000000000000e+04
-7.040900000000000000e+04
-7.327100000000000000e+04
-7.200300000000000000e+04
-6.798600000000000000e+04
-6.650900000000000000e+04
-7.038100000000000000e+04
-7.335400000000000000e+04
-7.222700000000000000e+04
-6.832300000000000000e+04
-6.679000000000000000e+04
-7.071900000000000000e+04
-7.367400000000000000e+04
-7.236400000000000000e+04
-6.820600000000000000e+04
-6.616600000000000000e+04
-6.974100000000000000e+04
-7.289900000000000000e+04
-7.199100000000000000e+04
-6.817700000000000000e+04
-6.647400000000000000e+04
-7.030000000000000000e+04
-7.344800000000000000e+04
-7.245000000000000000e+04
-6.850700000000000000e+04
-6.663400000000000000e+04
-7.027700000000000000e+04
-7.340300000000000000e+04
-7.244100000000000000e+04
-6.852900000000000000e+04
-6.659900000000000000e+04
-7.022900000000000000e+04
-7.338700000000000000e+04
-7.247200000000000000e+04
-6.857900000000000000e+04
-6.654000000000000000e+04
-7.014600000000000000e+04
-7.341900000000000000e+04
-7.257900000000000000e+04
-6.868600000000000000e+04
-6.657100000000000000e+04
-7.015100000000000000e+04
-7.348100000000000000e+04
-7.272100000000000000e+04
-6.888400000000000000e+04
-6.678300000000000000e+04
-7.032700000000000000e+04
-7.359000000000000000e+04
-7.277100000000000000e+04
-6.896200000000000000e+04
-6.682300000000000000e+04
-7.031700000000000000e+04
-7.370900000000000000e+04
-7.300400000000000000e+04
-6.921100000000000000e+04
-6.690600000000000000e+04
-7.033200000000000000e+04
-7.373000000000000000e+04
-7.307100000000000000e+04
-6.935100000000000000e+04
-6.699100000000000000e+04
-7.032200000000000000e+04
-7.372400000000000000e+04
-7.319200000000000000e+04
-6.942100000000000000e+04
-6.694000000000000000e+04
-7.020500000000000000e+04
-7.370000000000000000e+04
-7.324900000000000000e+04
-6.947900000000000000e+04
-6.696500000000000000e+04
-7.034200000000000000e+04
-7.396400000000000000e+04
-7.357100000000000000e+04
-6.989700000000000000e+04
-6.725000000000000000e+04
-7.038900000000000000e+04
-7.400200000000000000e+04
-7.362300000000000000e+04
-6.998200000000000000e+04
-6.733800000000000000e+04
-7.053200000000000000e+04
-7.421300000000000000e+04
-7.388100000000000000e+04
-7.025300000000000000e+04
-6.755500000000000000e+04
-7.057700000000000000e+04
-7.427600000000000000e+04
-7.406100000000000000e+04
-7.041500000000000000e+04
-6.751000000000000000e+04
-7.041900000000000000e+04
-7.412300000000000000e+04
-7.399400000000000000e+04
-7.050900000000000000e+04
-6.768200000000000000e+04
-7.062400000000000000e+04
-7.439200000000000000e+04
-7.422600000000000000e+04
-7.064100000000000000e+04
-6.770100000000000000e+04
-7.048500000000000000e+04
-7.428600000000000000e+04
-7.426700000000000000e+04
-7.072100000000000000e+04
-6.767100000000000000e+04
-7.039400000000000000e+04
-7.417700000000000000e+04
-7.415000000000000000e+04
-7.065900000000000000e+04
-6.759500000000000000e+04
-7.033900000000000000e+04
-7.423300000000000000e+04
-7.428900000000000000e+04
-7.075900000000000000e+04
-6.762700000000000000e+04
-7.027700000000000000e+04
-7.421200000000000000e+04
-7.434800000000000000e+04
-7.088100000000000000e+04
-6.776500000000000000e+04
-7.041400000000000000e+04
-7.435800000000000000e+04
-7.451800000000000000e+04
-7.111600000000000000e+04
-6.795600000000000000e+04
-7.047200000000000000e+04
-7.443900000000000000e+04
-7.473700000000000000e+04
-7.136400000000000000e+04
-6.809200000000000000e+04
-7.050400000000000000e+04
-7.452500000000000000e+04
-7.486700000000000000e+04
-7.153500000000000000e+04
-6.817400000000000000e+04
-7.052800000000000000e+04
-7.465100000000000000e+04
-7.509400000000000000e+04
-7.181200000000000000e+04
-6.843300000000000000e+04
-7.067500000000000000e+04
-7.475500000000000000e+04
-7.516800000000000000e+04
-7.189700000000000000e+04
-6.847600000000000000e+04
-7.066000000000000000e+04
-7.476200000000000000e+04
-7.519200000000000000e+04
-7.196100000000000000e+04
-6.847700000000000000e+04
-7.063500000000000000e+04
-7.480900000000000000e+04
-7.545600000000000000e+04
-7.228200000000000000e+04
-6.878100000000000000e+04
-7.078600000000000000e+04
-7.491400000000000000e+04
-7.552900000000000000e+04
-7.235700000000000000e+04
-6.880600000000000000e+04
-7.077900000000000000e+04
-7.503200000000000000e+04
-7.575800000000000000e+04
-7.269000000000000000e+04
-6.908100000000000000e+04
-7.095700000000000000e+04
-7.528900000000000000e+04
-7.612900000000000000e+04
-7.311000000000000000e+04
-6.954900000000000000e+04
-7.131600000000000000e+04
-7.558800000000000000e+04
-7.630600000000000000e+04
-7.301800000000000000e+04
-6.905000000000000000e+04
-7.054100000000000000e+04
-7.490400000000000000e+04
-7.601800000000000000e+04
-7.306100000000000000e+04
-6.940400000000000000e+04
-7.105600000000000000e+04
-7.535600000000000000e+04
-7.635900000000000000e+04
-7.332700000000000000e+04
-6.945700000000000000e+04
-7.086400000000000000e+04
-7.511300000000000000e+04
-7.611300000000000000e+04
-7.313200000000000000e+04
-6.937600000000000000e+04
-7.082300000000000000e+04
-7.519400000000000000e+04
-7.633600000000000000e+04
-7.346400000000000000e+04
-6.973700000000000000e+04
-7.121400000000000000e+04
-7.559500000000000000e+04
-7.673200000000000000e+04
-7.385600000000000000e+04
-7.002800000000000000e+04
-7.129600000000000000e+04
-7.569200000000000000e+04
-7.692400000000000000e+04
-7.406900000000000000e+04
-7.016400000000000000e+04
-7.128200000000000000e+04
-7.565700000000000000e+04
-7.696900000000000000e+04
-7.419600000000000000e+04
-7.029600000000000000e+04
-7.135400000000000000e+04
-7.575800000000000000e+04
-7.709500000000000000e+04
-7.428200000000000000e+04
-7.038900000000000000e+04
-7.133600000000000000e+04
-7.570900000000000000e+04
-7.705000000000000000e+04
-7.431600000000000000e+04
-7.031200000000000000e+04
-7.115000000000000000e+04
-7.550600000000000000e+04
-7.690700000000000000e+04
-7.427600000000000000e+04
-7.029600000000000000e+04
-7.110400000000000000e+04
-7.553800000000000000e+04
-7.710600000000000000e+04
-7.451700000000000000e+04
-7.050200000000000000e+04
-7.115400000000000000e+04
-7.559400000000000000e+04
-7.722900000000000000e+04
-7.467600000000000000e+04
-7.067200000000000000e+04
-7.128900000000000000e+04
-7.565900000000000000e+04
-7.729900000000000000e+04
-7.481700000000000000e+04
-7.082200000000000000e+04
-7.131600000000000000e+04
-7.578200000000000000e+04
-7.748300000000000000e+04
-7.502600000000000000e+04
-7.090900000000000000e+04
-7.121400000000000000e+04
-7.561800000000000000e+04
-7.737600000000000000e+04
-7.495100000000000000e+04
-7.082600000000000000e+04
-7.110400000000000000e+04
-7.561700000000000000e+04
-7.744900000000000000e+04
-7.511100000000000000e+04
-7.105400000000000000e+04
-7.123200000000000000e+04
-7.563900000000000000e+04
-7.755600000000000000e+04
-7.527000000000000000e+04
-7.115400000000000000e+04
-7.120800000000000000e+04
-7.558600000000000000e+04
-7.754400000000000000e+04
-7.535600000000000000e+04
-7.128700000000000000e+04
-7.121900000000000000e+04
-7.565600000000000000e+04
-7.768400000000000000e+04
-7.543200000000000000e+04
-7.132800000000000000e+04
-7.119300000000000000e+04
-7.553400000000000000e+04
-7.757100000000000000e+04
-7.540100000000000000e+04
-7.129200000000000000e+04
-7.108400000000000000e+04
-7.548700000000000000e+04
-7.768300000000000000e+04
-7.563700000000000000e+04
-7.150400000000000000e+04
-7.111200000000000000e+04
-7.548800000000000000e+04
-7.775000000000000000e+04
-7.571300000000000000e+04
-7.156300000000000000e+04
-7.111300000000000000e+04
-7.548300000000000000e+04
-7.777200000000000000e+04
-7.578900000000000000e+04
-7.165300000000000000e+04
-7.109100000000000000e+04
-7.549400000000000000e+04
-7.787100000000000000e+04
-7.592300000000000000e+04
-7.184900000000000000e+04
-7.123300000000000000e+04
-7.550400000000000000e+04
-7.780800000000000000e+04
-7.590000000000000000e+04
-7.178800000000000000e+04
-7.110300000000000000e+04
-7.542600000000000000e+04
-7.786600000000000000e+04
-7.604400000000000000e+04
-7.194600000000000000e+04
-7.111700000000000000e+04
-7.532200000000000000e+04
-7.777100000000000000e+04
-7.601800000000000000e+04
-7.189100000000000000e+04
-7.098000000000000000e+04
-7.523700000000000000e+04
-7.776400000000000000e+04
-7.607800000000000000e+04
-7.201400000000000000e+04
-7.107700000000000000e+04
-7.530100000000000000e+04
-7.790600000000000000e+04
-7.624300000000000000e+04
-7.205100000000000000e+04
-7.088600000000000000e+04
-7.509100000000000000e+04
-7.783700000000000000e+04
-7.629200000000000000e+04
-7.229700000000000000e+04
-7.119800000000000000e+04
-7.545100000000000000e+04
-7.831300000000000000e+04
-7.679400000000000000e+04
-7.265900000000000000e+04
-7.120600000000000000e+04
-7.502900000000000000e+04
-7.751600000000000000e+04
-7.593400000000000000e+04
-7.199400000000000000e+04
-7.081900000000000000e+04
-7.501400000000000000e+04
-7.790100000000000000e+04
-7.645200000000000000e+04
-7.233900000000000000e+04
-7.086400000000000000e+04
-7.486900000000000000e+04
-7.782700000000000000e+04
-7.644800000000000000e+04
-7.233900000000000000e+04
-7.078800000000000000e+04
-7.480900000000000000e+04
-7.774000000000000000e+04
-7.641300000000000000e+04
-7.241400000000000000e+04
-7.079500000000000000e+04
-7.481300000000000000e+04
-7.794000000000000000e+04
-7.673100000000000000e+04
-7.270800000000000000e+04
-7.093600000000000000e+04
-7.485500000000000000e+04
-7.796200000000000000e+04
-7.678100000000000000e+04
-7.279400000000000000e+04
-7.100200000000000000e+04
-7.487100000000000000e+04
-7.807500000000000000e+04
-7.700500000000000000e+04
-7.304800000000000000e+04
-7.116600000000000000e+04
-7.494200000000000000e+04
-7.811100000000000000e+04
-7.711500000000000000e+04
-7.320900000000000000e+04
-7.123400000000000000e+04
-7.499600000000000000e+04
-7.821300000000000000e+04
-7.718000000000000000e+04
-7.324800000000000000e+04
-7.122900000000000000e+04
-7.500900000000000000e+04
-7.828100000000000000e+04
-7.734000000000000000e+04
-7.340900000000000000e+04
-7.123900000000000000e+04
-7.487600000000000000e+04
-7.821200000000000000e+04
-7.734400000000000000e+04
-7.341500000000000000e+04
-7.117500000000000000e+04
-7.477400000000000000e+04
-7.819400000000000000e+04
-7.739900000000000000e+04
-7.348300000000000000e+04
-7.117700000000000000e+04
-7.477100000000000000e+04
-7.818200000000000000e+04
-7.749700000000000000e+04
-7.363900000000000000e+04
-7.118200000000000000e+04
-7.467300000000000000e+04
-7.815200000000000000e+04
-7.751600000000000000e+04
-7.368900000000000000e+04
-7.122100000000000000e+04
-7.464700000000000000e+04
-7.812200000000000000e+04
-7.752900000000000000e+04
-7.368700000000000000e+04
-7.110700000000000000e+04
-7.447700000000000000e+04
-7.798900000000000000e+04
-7.743200000000000000e+04
-7.368200000000000000e+04
-7.112100000000000000e+04
-7.449100000000000000e+04
-7.804700000000000000e+04
-7.752700000000000000e+04
-7.377400000000000000e+04
-7.110100000000000000e+04
-7.437000000000000000e+04
-7.801100000000000000e+04
-7.757600000000000000e+04
-7.385400000000000000e+04
-7.106700000000000000e+04
-7.425600000000000000e+04
-7.793200000000000000e+04
-7.757500000000000000e+04
-7.387400000000000000e+04
-7.105700000000000000e+04
-7.422600000000000000e+04
-7.800400000000000000e+04
-7.774500000000000000e+04
-7.403700000000000000e+04
-7.112900000000000000e+04
-7.418200000000000000e+04
-7.795400000000000000e+04
-7.774900000000000000e+04
-7.405800000000000000e+04
-7.108000000000000000e+04
-7.407700000000000000e+04
-7.790100000000000000e+04
-7.768400000000000000e+04
-7.404800000000000000e+04
-7.104000000000000000e+04
-7.395100000000000000e+04
-7.782000000000000000e+04
-7.772600000000000000e+04
-7.409400000000000000e+04
-7.098700000000000000e+04
-7.378900000000000000e+04
-7.764000000000000000e+04
-7.764100000000000000e+04
-7.407000000000000000e+04
-7.092100000000000000e+04
-7.366700000000000000e+04
-7.765300000000000000e+04
-7.774800000000000000e+04
-7.418900000000000000e+04
-7.091400000000000000e+04
-7.356300000000000000e+04
-7.757900000000000000e+04
-7.766200000000000000e+04
-7.415200000000000000e+04
-7.088500000000000000e+04
-7.343900000000000000e+04
-7.744900000000000000e+04
-7.765100000000000000e+04
-7.421400000000000000e+04
-7.094200000000000000e+04
-7.338900000000000000e+04
-7.741300000000000000e+04
-7.768700000000000000e+04
-7.427200000000000000e+04
-7.094900000000000000e+04
-7.337900000000000000e+04
-7.744100000000000000e+04
-7.774900000000000000e+04
-7.441600000000000000e+04
-7.101400000000000000e+04
-7.326900000000000000e+04
-7.734400000000000000e+04
-7.770100000000000000e+04
-7.426300000000000000e+04
-7.079100000000000000e+04
-7.289400000000000000e+04
-7.687500000000000000e+04
-7.733000000000000000e+04
-7.373900000000000000e+04
-6.983100000000000000e+04
-7.240800000000000000e+04
-7.747600000000000000e+04
-7.816700000000000000e+04
-7.516400000000000000e+04
-7.123300000000000000e+04
-7.289700000000000000e+04
-7.724600000000000000e+04
-7.830900000000000000e+04
-7.551500000000000000e+04
-7.199400000000000000e+04
-7.391100000000000000e+04
-7.803900000000000000e+04
-7.862600000000000000e+04
-7.512100000000000000e+04
-7.115100000000000000e+04
-7.283700000000000000e+04
-7.688900000000000000e+04
-7.757300000000000000e+04
-7.493000000000000000e+04
-7.160400000000000000e+04
-7.286100000000000000e+04
-7.693100000000000000e+04
-7.729600000000000000e+04
-7.455100000000000000e+04
-7.178400000000000000e+04
-7.367300000000000000e+04
-7.623700000000000000e+04
-7.523700000000000000e+04
-7.192600000000000000e+04
-6.853900000000000000e+04
-7.105500000000000000e+04
-7.633200000000000000e+04
-7.781100000000000000e+04
-7.496200000000000000e+04
-7.017700000000000000e+04
-7.159600000000000000e+04
-7.674200000000000000e+04
-7.636200000000000000e+04
-7.249700000000000000e+04
-7.021300000000000000e+04
-7.342800000000000000e+04
-7.653700000000000000e+04
-7.737100000000000000e+04
-7.321400000000000000e+04
-6.894200000000000000e+04
-7.123700000000000000e+04
-7.342000000000000000e+04
-7.198900000000000000e+04
-6.746400000000000000e+04
-6.541700000000000000e+04
-6.662800000000000000e+04
-6.930500000000000000e+04
-7.086200000000000000e+04
-7.091900000000000000e+04
-6.731500000000000000e+04
-6.758900000000000000e+04
-7.156400000000000000e+04
-7.268700000000000000e+04
-6.934600000000000000e+04
-6.534700000000000000e+04
-6.749500000000000000e+04
-6.826600000000000000e+04
-6.873600000000000000e+04
-6.579600000000000000e+04
-6.127800000000000000e+04
-6.129700000000000000e+04
-6.403700000000000000e+04
-6.449400000000000000e+04
-6.315200000000000000e+04
-5.818800000000000000e+04
-5.806100000000000000e+04
-6.215900000000000000e+04
-6.128900000000000000e+04
-6.009100000000000000e+04
-5.787700000000000000e+04
-5.759700000000000000e+04
-5.940700000000000000e+04
-6.111300000000000000e+04
-5.829100000000000000e+04
-5.452900000000000000e+04
-5.691900000000000000e+04
-6.012100000000000000e+04
-5.811800000000000000e+04
-5.624400000000000000e+04
-5.487200000000000000e+04
-5.539900000000000000e+04
-5.880300000000000000e+04
-6.007300000000000000e+04
-5.857500000000000000e+04
-5.331400000000000000e+04
-5.388700000000000000e+04
-5.899200000000000000e+04
-6.091700000000000000e+04
-5.838900000000000000e+04
-5.421700000000000000e+04
-5.454700000000000000e+04
-6.061300000000000000e+04
-5.994300000000000000e+04
-5.776200000000000000e+04
-5.384700000000000000e+04
-5.501400000000000000e+04
-5.837300000000000000e+04
-5.973700000000000000e+04
-5.883500000000000000e+04
-5.574200000000000000e+04
-5.376500000000000000e+04
-5.634700000000000000e+04
-6.032600000000000000e+04
-5.875400000000000000e+04
-5.338600000000000000e+04
-5.590500000000000000e+04
-5.858100000000000000e+04
-5.927300000000000000e+04
-5.792600000000000000e+04
-5.529700000000000000e+04
-5.559400000000000000e+04
-5.918700000000000000e+04
-6.024400000000000000e+04
-5.868200000000000000e+04
-5.435400000000000000e+04
-5.390300000000000000e+04
-5.986900000000000000e+04
-6.053700000000000000e+04
-5.836700000000000000e+04
-5.474100000000000000e+04
-5.386200000000000000e+04
-5.788700000000000000e+04
-6.054100000000000000e+04
-5.846100000000000000e+04
-5.365600000000000000e+04
-5.363700000000000000e+04
-5.874000000000000000e+04
-6.057100000000000000e+04
-5.830700000000000000e+04
-5.547700000000000000e+04
-5.446400000000000000e+04
-5.830200000000000000e+04
-6.033600000000000000e+04
-5.831400000000000000e+04
-5.447700000000000000e+04
-5.390200000000000000e+04
-5.793700000000000000e+04
-6.069100000000000000e+04
-5.851400000000000000e+04
-5.442000000000000000e+04
-5.423200000000000000e+04
-5.893300000000000000e+04
-6.116100000000000000e+04
-5.914200000000000000e+04
-5.542000000000000000e+04
-5.497700000000000000e+04
-5.925700000000000000e+04
-6.168900000000000000e+04
-6.023100000000000000e+04
-5.665400000000000000e+04
-5.618700000000000000e+04
-6.060900000000000000e+04
-6.321300000000000000e+04
-6.204300000000000000e+04
-5.861200000000000000e+04
-5.799700000000000000e+04
-6.220000000000000000e+04
-6.491100000000000000e+04
-6.347100000000000000e+04
-5.961600000000000000e+04
-5.894700000000000000e+04
-6.358900000000000000e+04
-6.667700000000000000e+04
-6.567900000000000000e+04
-6.235900000000000000e+04
-6.163200000000000000e+04
-6.603600000000000000e+04
-6.921200000000000000e+04
-6.822100000000000000e+04
-6.472200000000000000e+04
-6.388600000000000000e+04
-6.835700000000000000e+04
-7.177600000000000000e+04
-7.079700000000000000e+04
-6.717000000000000000e+04
-6.596000000000000000e+04
-6.956400000000000000e+04
-7.230700000000000000e+04
-7.145900000000000000e+04
-6.834700000000000000e+04
-6.770200000000000000e+04
-7.217800000000000000e+04
-7.548500000000000000e+04
-7.443100000000000000e+04
-7.066100000000000000e+04
-6.938400000000000000e+04
-7.359900000000000000e+04
-7.677200000000000000e+04
-7.557600000000000000e+04
-7.160400000000000000e+04
-7.012900000000000000e+04
-7.415600000000000000e+04
-7.718100000000000000e+04
-7.581300000000000000e+04
-7.157300000000000000e+04
-6.941500000000000000e+04
-7.208900000000000000e+04
-7.458800000000000000e+04
-7.392000000000000000e+04
-7.037000000000000000e+04
-6.894400000000000000e+04
-7.329000000000000000e+04
-7.729400000000000000e+04
-7.681700000000000000e+04
-7.293700000000000000e+04
-7.098300000000000000e+04
-7.478200000000000000e+04
-7.799900000000000000e+04
-7.691900000000000000e+04
-7.277200000000000000e+04
-7.052400000000000000e+04
-7.434000000000000000e+04
-7.760700000000000000e+04
-7.656100000000000000e+04
-7.253500000000000000e+04
-7.048300000000000000e+04
-7.437900000000000000e+04
-7.775600000000000000e+04
-7.684200000000000000e+04
-7.272300000000000000e+04
-7.036000000000000000e+04
-7.413300000000000000e+04
-7.761600000000000000e+04
-7.664900000000000000e+04
-7.241300000000000000e+04
-6.987000000000000000e+04
-7.352500000000000000e+04
-7.691900000000000000e+04
-7.590000000000000000e+04
-7.170900000000000000e+04
-6.925300000000000000e+04
-7.291800000000000000e+04
-7.653200000000000000e+04
-7.587900000000000000e+04
-7.184400000000000000e+04
-6.936600000000000000e+04
-7.297900000000000000e+04
-7.663500000000000000e+04
-7.601600000000000000e+04
-7.205600000000000000e+04
-6.951100000000000000e+04
-7.311600000000000000e+04
-7.688400000000000000e+04
-7.630900000000000000e+04
-7.239200000000000000e+04
-6.984400000000000000e+04
-7.333000000000000000e+04
-7.715600000000000000e+04
-7.668200000000000000e+04
-7.281800000000000000e+04
-7.011200000000000000e+04
-7.359300000000000000e+04
-7.740500000000000000e+04
-7.690900000000000000e+04
-7.301000000000000000e+04
-7.031800000000000000e+04
-7.368800000000000000e+04
-7.749100000000000000e+04
-7.714900000000000000e+04
-7.338400000000000000e+04
-7.051900000000000000e+04
-7.370600000000000000e+04
-7.754700000000000000e+04
-7.714900000000000000e+04
-7.323700000000000000e+04
-7.028600000000000000e+04
-7.338700000000000000e+04
-7.723400000000000000e+04
-7.697100000000000000e+04
-7.319100000000000000e+04
-7.027000000000000000e+04
-7.345700000000000000e+04
-7.741900000000000000e+04
-7.731900000000000000e+04
-7.359900000000000000e+04
-7.056600000000000000e+04
-7.358400000000000000e+04
-7.762900000000000000e+04
-7.755200000000000000e+04
-7.387600000000000000e+04
-7.076600000000000000e+04
-7.368200000000000000e+04
-7.772700000000000000e+04
-7.775500000000000000e+04
-7.412600000000000000e+04
-7.095400000000000000e+04
-7.382800000000000000e+04
-7.787600000000000000e+04
-7.794900000000000000e+04
-7.424800000000000000e+04
-7.097200000000000000e+04
-7.369600000000000000e+04
-7.779200000000000000e+04
-7.796300000000000000e+04
-7.443600000000000000e+04
-7.117600000000000000e+04
-7.385500000000000000e+04
-7.792100000000000000e+04
-7.814400000000000000e+04
-7.459100000000000000e+04
-7.121700000000000000e+04
-7.374800000000000000e+04
-7.787300000000000000e+04
-7.813700000000000000e+04
-7.458800000000000000e+04
-7.103400000000000000e+04
-7.340900000000000000e+04
-7.765700000000000000e+04
-7.805400000000000000e+04
-7.467800000000000000e+04
-7.122200000000000000e+04
-7.362800000000000000e+04
-7.787600000000000000e+04
-7.829700000000000000e+04
-7.481300000000000000e+04
-7.117900000000000000e+04
-7.327300000000000000e+04
-7.715400000000000000e+04
-7.737600000000000000e+04
-7.393100000000000000e+04
-7.043700000000000000e+04
-7.275600000000000000e+04
-7.708600000000000000e+04
-7.767900000000000000e+04
-7.431700000000000000e+04
-7.068900000000000000e+04
-7.282100000000000000e+04
-7.710600000000000000e+04
-7.773900000000000000e+04
-7.443200000000000000e+04
-7.072700000000000000e+04
-7.266100000000000000e+04
-7.696100000000000000e+04
-7.767900000000000000e+04
-7.437900000000000000e+04
-7.057200000000000000e+04
-7.242700000000000000e+04
-7.670300000000000000e+04
-7.749200000000000000e+04
-7.427900000000000000e+04
-7.048900000000000000e+04
-7.223200000000000000e+04
-7.664400000000000000e+04
-7.753400000000000000e+04
-7.435000000000000000e+04
-7.050800000000000000e+04
-7.221700000000000000e+04
-7.659100000000000000e+04
-7.754800000000000000e+04
-7.449700000000000000e+04
-7.074600000000000000e+04
-7.238300000000000000e+04
-7.674900000000000000e+04
-7.773400000000000000e+04
-7.464600000000000000e+04
-7.073700000000000000e+04
-7.225000000000000000e+04
-7.663900000000000000e+04
-7.768100000000000000e+04
-7.472600000000000000e+04
-7.091600000000000000e+04
-7.230600000000000000e+04
-7.669100000000000000e+04
-7.790600000000000000e+04
-7.499100000000000000e+04
-7.096300000000000000e+04
-7.221200000000000000e+04
-7.660200000000000000e+04
-7.785500000000000000e+04
-7.498400000000000000e+04
-7.102900000000000000e+04
-7.227100000000000000e+04
-7.670900000000000000e+04
-7.796100000000000000e+04
-7.507600000000000000e+04
-7.110500000000000000e+04
-7.222100000000000000e+04
-7.665300000000000000e+04
-7.801100000000000000e+04
-7.516700000000000000e+04
-7.121400000000000000e+04
-7.223200000000000000e+04
-7.663100000000000000e+04
-7.802300000000000000e+04
-7.522100000000000000e+04
-7.121200000000000000e+04
-7.210400000000000000e+04
-7.656700000000000000e+04
-7.800600000000000000e+04
-7.526200000000000000e+04
-7.124100000000000000e+04
-7.198400000000000000e+04
-7.642400000000000000e+04
-7.803200000000000000e+04
-7.530100000000000000e+04
-7.116900000000000000e+04
-7.182000000000000000e+04
-7.628000000000000000e+04
-7.789800000000000000e+04
-7.527800000000000000e+04
-7.119800000000000000e+04
-7.185200000000000000e+04
-7.634100000000000000e+04
-7.800100000000000000e+04
-7.540200000000000000e+04
-7.123400000000000000e+04
-7.168200000000000000e+04
-7.604900000000000000e+04
-7.765400000000000000e+04
-7.504000000000000000e+04
-7.094900000000000000e+04
-7.140100000000000000e+04
-7.595600000000000000e+04
-7.782100000000000000e+04
-7.533700000000000000e+04
-7.121600000000000000e+04
-7.150400000000000000e+04
-7.598400000000000000e+04
-7.788700000000000000e+04
-7.547700000000000000e+04
-7.142800000000000000e+04
-7.163900000000000000e+04
-7.609200000000000000e+04
-7.803900000000000000e+04
-7.560700000000000000e+04
-7.139000000000000000e+04
-7.148400000000000000e+04
-7.595100000000000000e+04
-7.791200000000000000e+04
-7.551700000000000000e+04
-7.134400000000000000e+04
-7.137900000000000000e+04
-7.588200000000000000e+04
-7.797600000000000000e+04
-7.565700000000000000e+04
-7.146300000000000000e+04
-7.133100000000000000e+04
-7.574300000000000000e+04
-7.791900000000000000e+04
-7.569800000000000000e+04
-7.150900000000000000e+04
-7.122400000000000000e+04
-7.567100000000000000e+04
-7.797900000000000000e+04
-7.580900000000000000e+04
-7.158200000000000000e+04
-7.115600000000000000e+04
-7.555600000000000000e+04
-7.781100000000000000e+04
-7.576200000000000000e+04
-7.158300000000000000e+04
-7.111900000000000000e+04
-7.542900000000000000e+04
-7.768600000000000000e+04
-7.565000000000000000e+04
-7.147100000000000000e+04
-7.099700000000000000e+04
-7.536400000000000000e+04
-7.778700000000000000e+04
-7.580700000000000000e+04
-7.155100000000000000e+04
-7.084900000000000000e+04
-7.516100000000000000e+04
-7.757100000000000000e+04
-7.561700000000000000e+04
-7.147700000000000000e+04
-7.086200000000000000e+04
-7.525200000000000000e+04
-7.783500000000000000e+04
-7.605700000000000000e+04
-7.197200000000000000e+04
-7.116700000000000000e+04
-7.541100000000000000e+04
-7.776600000000000000e+04
-7.566000000000000000e+04
-7.118200000000000000e+04
-7.013200000000000000e+04
-7.448600000000000000e+04
-7.731400000000000000e+04
-7.564400000000000000e+04
-7.151700000000000000e+04
-7.050400000000000000e+04
-7.471000000000000000e+04
-7.741700000000000000e+04
-7.577400000000000000e+04
-7.158200000000000000e+04
-7.041900000000000000e+04
-7.470400000000000000e+04
-7.747900000000000000e+04
-7.585600000000000000e+04
-7.165200000000000000e+04
-7.041000000000000000e+04
-7.454600000000000000e+04
-7.729700000000000000e+04
-7.569800000000000000e+04
-7.149200000000000000e+04
-7.017800000000000000e+04
-7.431600000000000000e+04
-7.716700000000000000e+04
-7.561600000000000000e+04
-7.144900000000000000e+04
-7.001300000000000000e+04
-7.408400000000000000e+04
-7.699200000000000000e+04
-7.555100000000000000e+04
-7.144400000000000000e+04
-6.995000000000000000e+04
-7.394600000000000000e+04
-7.691400000000000000e+04
-7.557700000000000000e+04
-7.147400000000000000e+04
-6.988400000000000000e+04
-7.386200000000000000e+04
-7.688600000000000000e+04
-7.557500000000000000e+04
-7.142100000000000000e+04
-6.971700000000000000e+04
-7.362200000000000000e+04
-7.670200000000000000e+04
-7.544400000000000000e+04
-7.134300000000000000e+04
-6.959400000000000000e+04
-7.351100000000000000e+04
-7.672700000000000000e+04
-7.562400000000000000e+04
-7.153900000000000000e+04
-6.958600000000000000e+04
-7.333900000000000000e+04
-7.654800000000000000e+04
-7.545000000000000000e+04
-7.136700000000000000e+04
-6.943600000000000000e+04
-7.322400000000000000e+04
-7.646000000000000000e+04
-7.549300000000000000e+04
-7.144100000000000000e+04
-6.936100000000000000e+04
-7.313100000000000000e+04
-7.645500000000000000e+04
-7.549100000000000000e+04
-7.151800000000000000e+04
-6.939700000000000000e+04
-7.311800000000000000e+04
-7.652700000000000000e+04
-7.560800000000000000e+04
-7.160200000000000000e+04
-6.937600000000000000e+04
-7.298100000000000000e+04
-7.636900000000000000e+04
-7.554800000000000000e+04
-7.157800000000000000e+04
-6.929400000000000000e+04
-7.291000000000000000e+04
-7.641100000000000000e+04
-7.566100000000000000e+04
-7.172100000000000000e+04
-6.932100000000000000e+04
-7.282200000000000000e+04
-7.630800000000000000e+04
-7.563500000000000000e+04
-7.175200000000000000e+04
-6.927200000000000000e+04
-7.274400000000000000e+04
-7.627600000000000000e+04
-7.563000000000000000e+04
-7.170600000000000000e+04
-6.914800000000000000e+04
-7.255900000000000000e+04
-7.615000000000000000e+04
-7.556600000000000000e+04
-7.177400000000000000e+04
-6.920200000000000000e+04
-7.256600000000000000e+04
-7.617600000000000000e+04
-7.564700000000000000e+04
-7.184200000000000000e+04
-6.924200000000000000e+04
-7.257700000000000000e+04
-7.627400000000000000e+04
-7.584100000000000000e+04
-7.198700000000000000e+04
-6.917600000000000000e+04
-7.242900000000000000e+04
-7.618700000000000000e+04
-7.582400000000000000e+04
-7.204100000000000000e+04
-6.923100000000000000e+04
-7.244100000000000000e+04
-7.627500000000000000e+04
-7.602700000000000000e+04
-7.226500000000000000e+04
-6.936400000000000000e+04
-7.237200000000000000e+04
-7.614900000000000000e+04
-7.583700000000000000e+04
-7.206300000000000000e+04
-6.910200000000000000e+04
-7.211600000000000000e+04
-7.605800000000000000e+04
-7.593300000000000000e+04
-7.223400000000000000e+04
-6.919600000000000000e+04
-7.209400000000000000e+04
-7.598400000000000000e+04
-7.592200000000000000e+04
-7.227100000000000000e+04
-6.918800000000000000e+04
-7.199700000000000000e+04
-7.595700000000000000e+04
-7.594100000000000000e+04
-7.227900000000000000e+04
-6.907300000000000000e+04
-7.182400000000000000e+04
-7.575900000000000000e+04
-7.581400000000000000e+04
-7.225500000000000000e+04
-6.897200000000000000e+04
-7.163800000000000000e+04
-7.566400000000000000e+04
-7.581200000000000000e+04
-7.224200000000000000e+04
-6.891500000000000000e+04
-7.149100000000000000e+04
-7.563000000000000000e+04
-7.590300000000000000e+04
-7.242300000000000000e+04
-6.906400000000000000e+04
-7.163200000000000000e+04
-7.586700000000000000e+04
-7.619500000000000000e+04
-7.265700000000000000e+04
-6.906300000000000000e+04
-7.117400000000000000e+04
-7.496100000000000000e+04
-7.526500000000000000e+04
-7.199100000000000000e+04
-6.869400000000000000e+04
-7.104700000000000000e+04
-7.527100000000000000e+04
-7.575800000000000000e+04
-7.235900000000000000e+04
-6.886700000000000000e+04
-7.107700000000000000e+04
-7.521500000000000000e+04
-7.571200000000000000e+04
-7.238700000000000000e+04
-6.887700000000000000e+04
-7.099300000000000000e+04
-7.517900000000000000e+04
-7.574600000000000000e+04
-7.239800000000000000e+04
-6.876200000000000000e+04
-7.080300000000000000e+04
-7.506700000000000000e+04
-7.570700000000000000e+04
-7.236900000000000000e+04
-6.875500000000000000e+04
-7.072900000000000000e+04
-7.493700000000000000e+04
-7.562100000000000000e+04
-7.234100000000000000e+04
-6.865600000000000000e+04
-7.057200000000000000e+04
-7.485200000000000000e+04
-7.556900000000000000e+04
-7.235900000000000000e+04
-6.862600000000000000e+04
-7.033900000000000000e+04
-7.462400000000000000e+04
-7.547200000000000000e+04
-7.228900000000000000e+04
-6.854900000000000000e+04
-7.026000000000000000e+04
-7.458100000000000000e+04
-7.546700000000000000e+04
-7.235300000000000000e+04
-6.854700000000000000e+04
-7.012700000000000000e+04
-7.445100000000000000e+04
-7.539900000000000000e+04
-7.232200000000000000e+04
-6.852000000000000000e+04
-7.001200000000000000e+04
-7.436400000000000000e+04
-7.543300000000000000e+04
-7.237100000000000000e+04
-6.857300000000000000e+04
-7.002800000000000000e+04
-7.435400000000000000e+04
-7.538900000000000000e+04
-7.243900000000000000e+04
-6.861300000000000000e+04
-6.985200000000000000e+04
-7.416200000000000000e+04
-7.534800000000000000e+04
-7.247200000000000000e+04
-6.861500000000000000e+04
-6.980500000000000000e+04
-7.414900000000000000e+04
-7.549600000000000000e+04
-7.272700000000000000e+04
-6.879500000000000000e+04
-6.977700000000000000e+04
-7.412500000000000000e+04
-7.552900000000000000e+04
-7.277400000000000000e+04
-6.890100000000000000e+04
-6.986600000000000000e+04
-7.418900000000000000e+04
-7.554700000000000000e+04
-7.277300000000000000e+04
-6.880400000000000000e+04
-6.967900000000000000e+04
-7.408700000000000000e+04
-7.551600000000000000e+04
-7.285100000000000000e+04
-6.883200000000000000e+04
-6.953600000000000000e+04
-7.401100000000000000e+04
-7.558900000000000000e+04
-7.296700000000000000e+04
-6.892200000000000000e+04
-6.956300000000000000e+04
-7.394200000000000000e+04
-7.544100000000000000e+04
-7.287600000000000000e+04
-6.884300000000000000e+04
-6.928900000000000000e+04
-7.365200000000000000e+04
-7.529200000000000000e+04
-7.278200000000000000e+04
-6.871200000000000000e+04
-6.914600000000000000e+04
-7.359600000000000000e+04
-7.539900000000000000e+04
-7.291900000000000000e+04
-6.882600000000000000e+04
-6.915400000000000000e+04
-7.358200000000000000e+04
-7.536800000000000000e+04
-7.295400000000000000e+04
-6.889600000000000000e+04
-6.916900000000000000e+04
-7.357100000000000000e+04
-7.540500000000000000e+04
-7.306100000000000000e+04
-6.890200000000000000e+04
-6.896700000000000000e+04
-7.341100000000000000e+04
-7.539200000000000000e+04
-7.310300000000000000e+04
-6.899500000000000000e+04
-6.901000000000000000e+04
-7.339100000000000000e+04
-7.539700000000000000e+04
-7.315000000000000000e+04
-6.906300000000000000e+04
-6.897100000000000000e+04
-7.333000000000000000e+04
-7.543100000000000000e+04
-7.321000000000000000e+04
-6.902600000000000000e+04
-6.882400000000000000e+04
-7.322600000000000000e+04
-7.541200000000000000e+04
-7.332400000000000000e+04
-6.915600000000000000e+04
-6.886200000000000000e+04
-7.325900000000000000e+04
-7.548400000000000000e+04
-7.344800000000000000e+04
-6.931100000000000000e+04
-6.890600000000000000e+04
-7.323400000000000000e+04
-7.550000000000000000e+04
-7.349600000000000000e+04
-6.932000000000000000e+04
-6.880100000000000000e+04
-7.310900000000000000e+04
-7.542200000000000000e+04
-7.342300000000000000e+04
-6.926800000000000000e+04
-6.877200000000000000e+04
-7.315400000000000000e+04
-7.558100000000000000e+04
-7.373100000000000000e+04
-6.965200000000000000e+04
-6.899400000000000000e+04
-7.323300000000000000e+04
-7.542500000000000000e+04
-7.332100000000000000e+04
-6.889000000000000000e+04
-6.798800000000000000e+04
-7.239300000000000000e+04
-7.505800000000000000e+04
-7.331900000000000000e+04
-6.927700000000000000e+04
-6.843000000000000000e+04
-7.268900000000000000e+04
-7.527900000000000000e+04
-7.358500000000000000e+04
-6.947600000000000000e+04
-6.852400000000000000e+04
-7.274600000000000000e+04
-7.534600000000000000e+04
-7.368300000000000000e+04
-6.955800000000000000e+04
-6.849900000000000000e+04
-7.276700000000000000e+04
-7.551100000000000000e+04
-7.391400000000000000e+04
-6.979000000000000000e+04
-6.855500000000000000e+04
-7.265000000000000000e+04
-7.532700000000000000e+04
-7.375200000000000000e+04
-6.961600000000000000e+04
-6.836500000000000000e+04
-7.247100000000000000e+04
-7.526100000000000000e+04
-7.379600000000000000e+04
-6.967800000000000000e+04
-6.827600000000000000e+04
-7.239200000000000000e+04
-7.528000000000000000e+04
-7.382400000000000000e+04
-6.974000000000000000e+04
-6.824000000000000000e+04
-7.232100000000000000e+04
-7.534100000000000000e+04
-7.396800000000000000e+04
-6.982300000000000000e+04
-6.821100000000000000e+04
-7.227200000000000000e+04
-7.533000000000000000e+04
-7.404800000000000000e+04
-6.998100000000000000e+04
-6.830000000000000000e+04
-7.231500000000000000e+04
-7.530900000000000000e+04
-7.401700000000000000e+04
-6.993600000000000000e+04
-6.816700000000000000e+04
-7.210000000000000000e+04
-7.516400000000000000e+04
-7.398200000000000000e+04
-6.992200000000000000e+04
-6.805900000000000000e+04
-7.194000000000000000e+04
-7.513600000000000000e+04
-7.400900000000000000e+04
-6.996000000000000000e+04
-6.803900000000000000e+04
-7.191100000000000000e+04
-7.518100000000000000e+04
-7.410200000000000000e+04
-7.003700000000000000e+04
-6.803900000000000000e+04
-7.181600000000000000e+04
-7.507700000000000000e+04
-7.411600000000000000e+04
-7.007600000000000000e+04
-6.791200000000000000e+04
-7.163000000000000000e+04
-7.491400000000000000e+04
-7.395100000000000000e+04
-6.994200000000000000e+04
-6.770600000000000000e+04
-7.142700000000000000e+04
-7.477000000000000000e+04
-7.383000000000000000e+04
-6.983500000000000000e+04
-6.758700000000000000e+04
-7.129600000000000000e+04
-7.469100000000000000e+04
-7.386200000000000000e+04
-6.990600000000000000e+04
-6.750400000000000000e+04
-7.113500000000000000e+04
-7.457000000000000000e+04
-7.384700000000000000e+04
-6.990400000000000000e+04
-6.736900000000000000e+04
-7.089900000000000000e+04
-7.437100000000000000e+04
-7.368900000000000000e+04
-6.984700000000000000e+04
-6.736300000000000000e+04
-7.084900000000000000e+04
-7.434300000000000000e+04
-7.377800000000000000e+04
-6.992700000000000000e+04
-6.728200000000000000e+04
-7.071500000000000000e+04
-7.432300000000000000e+04
-7.378800000000000000e+04
-6.998100000000000000e+04
-6.729100000000000000e+04
-7.057900000000000000e+04
-7.419400000000000000e+04
-7.371200000000000000e+04
-6.993100000000000000e+04
-6.713500000000000000e+04
-7.038800000000000000e+04
-7.413600000000000000e+04
-7.377700000000000000e+04
-7.002100000000000000e+04
-6.715100000000000000e+04
-7.023900000000000000e+04
-7.389700000000000000e+04
-7.348700000000000000e+04
-6.972100000000000000e+04
-6.687500000000000000e+04
-6.994400000000000000e+04
-7.372100000000000000e+04
-7.351600000000000000e+04
-6.986200000000000000e+04
-6.693100000000000000e+04
-6.989700000000000000e+04
-7.366200000000000000e+04
-7.348600000000000000e+04
-6.982400000000000000e+04
-6.668700000000000000e+04
-6.947000000000000000e+04
-7.326400000000000000e+04
-7.313200000000000000e+04
-6.952000000000000000e+04
-6.643700000000000000e+04
-6.931200000000000000e+04
-7.322600000000000000e+04
-7.321900000000000000e+04
-6.969100000000000000e+04
-6.652200000000000000e+04
-6.924600000000000000e+04
-7.315800000000000000e+04
-7.316200000000000000e+04
-6.962900000000000000e+04
-6.648900000000000000e+04
-6.925500000000000000e+04
-7.326900000000000000e+04
-7.343800000000000000e+04
-7.005600000000000000e+04
-6.692300000000000000e+04
-6.960700000000000000e+04
-7.370400000000000000e+04
-7.391700000000000000e+04
-7.033000000000000000e+04
-6.687100000000000000e+04
-6.908900000000000000e+04
-7.283100000000000000e+04
-7.303700000000000000e+04
-6.977900000000000000e+04
-6.661600000000000000e+04
-6.911400000000000000e+04
-7.321700000000000000e+04
-7.357000000000000000e+04
-7.018500000000000000e+04
-6.685000000000000000e+04
-6.922000000000000000e+04
-7.332100000000000000e+04
-7.367200000000000000e+04
-7.029200000000000000e+04
-6.679800000000000000e+04
-6.904300000000000000e+04
-7.313400000000000000e+04
-7.358600000000000000e+04
-7.034100000000000000e+04
-6.687200000000000000e+04
-6.897700000000000000e+04
-7.310100000000000000e+04
-7.362900000000000000e+04
-7.034700000000000000e+04
-6.674200000000000000e+04
-6.879100000000000000e+04
-7.292900000000000000e+04
-7.351400000000000000e+04
-7.030700000000000000e+04
-6.669400000000000000e+04
-6.868400000000000000e+04
-7.288700000000000000e+04
-7.351200000000000000e+04
-7.027200000000000000e+04
-6.656100000000000000e+04
-6.847300000000000000e+04
-7.273600000000000000e+04
-7.337600000000000000e+04
-7.019100000000000000e+04
-6.652300000000000000e+04
-6.832300000000000000e+04
-7.260100000000000000e+04
-7.336100000000000000e+04
-7.019600000000000000e+04
-6.645200000000000000e+04
-6.812600000000000000e+04
-7.240100000000000000e+04
-7.325400000000000000e+04
-7.016300000000000000e+04
-6.641500000000000000e+04
-6.804100000000000000e+04
-7.236900000000000000e+04
-7.330800000000000000e+04
-7.028100000000000000e+04
-6.644200000000000000e+04
-6.788900000000000000e+04
-7.221300000000000000e+04
-7.320400000000000000e+04
-7.020900000000000000e+04
-6.638300000000000000e+04
-6.784600000000000000e+04
-7.223700000000000000e+04
-7.328000000000000000e+04
-7.027400000000000000e+04
-6.637900000000000000e+04
-6.769200000000000000e+04
-7.202900000000000000e+04
-7.319100000000000000e+04
-7.029900000000000000e+04
-6.638200000000000000e+04
-6.759600000000000000e+04
-7.192800000000000000e+04
-7.309600000000000000e+04
-7.029100000000000000e+04
-6.637300000000000000e+04
-6.746500000000000000e+04
-7.184600000000000000e+04
-7.312000000000000000e+04
-7.031300000000000000e+04
-6.640700000000000000e+04
-6.747000000000000000e+04
-7.189300000000000000e+04
-7.320600000000000000e+04
-7.046800000000000000e+04
-6.650600000000000000e+04
-6.738400000000000000e+04
-7.176800000000000000e+04
-7.309600000000000000e+04
-7.029200000000000000e+04
-6.621700000000000000e+04
-6.703100000000000000e+04
-7.144700000000000000e+04
-7.297200000000000000e+04
-7.038100000000000000e+04
-6.640900000000000000e+04
-6.713200000000000000e+04
-7.155900000000000000e+04
-7.313400000000000000e+04
-7.050900000000000000e+04
-6.645600000000000000e+04
-6.706600000000000000e+04
-7.154600000000000000e+04
-7.322000000000000000e+04
-7.070800000000000000e+04
-6.664500000000000000e+04
-6.717700000000000000e+04
-7.163900000000000000e+04
-7.328500000000000000e+04
-7.074200000000000000e+04
-6.656500000000000000e+04
-6.692200000000000000e+04
-7.139700000000000000e+04
-7.315900000000000000e+04
-7.068300000000000000e+04
-6.657400000000000000e+04
-6.671900000000000000e+04
-7.092500000000000000e+04
-7.255000000000000000e+04
-7.014100000000000000e+04
-6.552000000000000000e+04
-6.544200000000000000e+04
-6.981200000000000000e+04
-7.138700000000000000e+04
-6.853700000000000000e+04
-6.485900000000000000e+04
-6.317800000000000000e+04
-6.593700000000000000e+04
-6.818200000000000000e+04
-6.762600000000000000e+04
-6.447200000000000000e+04
-6.552600000000000000e+04
-6.896600000000000000e+04
-7.006700000000000000e+04
-6.891400000000000000e+04
-6.529200000000000000e+04
-6.565300000000000000e+04
-7.091300000000000000e+04
-7.084700000000000000e+04
-6.753700000000000000e+04
-6.420200000000000000e+04
-6.456900000000000000e+04
-6.890600000000000000e+04
-6.991800000000000000e+04
-6.552400000000000000e+04
-6.123600000000000000e+04
-6.345300000000000000e+04
-6.722100000000000000e+04
-7.086100000000000000e+04
-6.814000000000000000e+04
-6.186100000000000000e+04
-6.385900000000000000e+04
-6.669600000000000000e+04
-6.548000000000000000e+04
-6.720900000000000000e+04
-6.321100000000000000e+04
-6.210400000000000000e+04
-6.768400000000000000e+04
-7.049600000000000000e+04
-6.624600000000000000e+04
-6.175200000000000000e+04
-6.016400000000000000e+04
-6.440100000000000000e+04
-6.581400000000000000e+04
-6.396000000000000000e+04
-6.137200000000000000e+04
-5.736000000000000000e+04
-5.925300000000000000e+04
-6.264700000000000000e+04
-5.869900000000000000e+04
-5.377000000000000000e+04
-5.369500000000000000e+04
-5.735100000000000000e+04
-6.123400000000000000e+04
-5.885000000000000000e+04
-5.281600000000000000e+04
-5.424500000000000000e+04
-5.703400000000000000e+04
-5.716200000000000000e+04
-5.760200000000000000e+04
-5.355400000000000000e+04
-5.169200000000000000e+04
-5.691700000000000000e+04
-5.841000000000000000e+04
-5.426100000000000000e+04
-5.106000000000000000e+04
-5.281600000000000000e+04
-5.567200000000000000e+04
-5.832900000000000000e+04
-5.636500000000000000e+04
-5.084200000000000000e+04
-5.133400000000000000e+04
-5.507600000000000000e+04
-5.961200000000000000e+04
-5.660400000000000000e+04
-5.252400000000000000e+04
-5.088700000000000000e+04
-5.651100000000000000e+04
-5.798500000000000000e+04
-5.744600000000000000e+04
-5.363900000000000000e+04
-5.111600000000000000e+04
-5.465900000000000000e+04
-5.735800000000000000e+04
-5.650200000000000000e+04
-5.378000000000000000e+04
-5.223900000000000000e+04
-5.435200000000000000e+04
-5.675900000000000000e+04
-5.735900000000000000e+04
-5.394900000000000000e+04
-4.987200000000000000e+04
-5.400600000000000000e+04
-5.695900000000000000e+04
-5.728200000000000000e+04
-5.422100000000000000e+04
-4.984300000000000000e+04
-5.320700000000000000e+04
-5.755600000000000000e+04
-5.659100000000000000e+04
-5.269700000000000000e+04
-5.193900000000000000e+04
-5.546200000000000000e+04
-5.698100000000000000e+04
-5.617700000000000000e+04
-5.143900000000000000e+04
-5.261000000000000000e+04
-5.520900000000000000e+04
-5.819400000000000000e+04
-5.658900000000000000e+04
-5.207700000000000000e+04
-5.111300000000000000e+04
-5.487100000000000000e+04
-5.784700000000000000e+04
-5.660200000000000000e+04
-5.245200000000000000e+04
-5.039100000000000000e+04
-5.523400000000000000e+04
-5.756200000000000000e+04
-5.620900000000000000e+04
-5.232400000000000000e+04
-5.054600000000000000e+04
-5.390100000000000000e+04
-5.690600000000000000e+04
-5.636600000000000000e+04
-5.266900000000000000e+04
-5.023500000000000000e+04
-5.350500000000000000e+04
-5.653100000000000000e+04
-5.595900000000000000e+04
-5.262400000000000000e+04
-5.085800000000000000e+04
-5.464200000000000000e+04
-5.781700000000000000e+04
-5.728900000000000000e+04
-5.399400000000000000e+04
-5.213200000000000000e+04
-5.578400000000000000e+04
-5.915100000000000000e+04
-5.841600000000000000e+04
-5.531700000000000000e+04
-5.381900000000000000e+04
-5.766900000000000000e+04
-6.148000000000000000e+04
-6.135300000000000000e+04
-5.818600000000000000e+04
-5.623800000000000000e+04
-5.991400000000000000e+04
-6.372100000000000000e+04
-6.355600000000000000e+04
-6.032500000000000000e+04
-5.802900000000000000e+04
-6.156300000000000000e+04
-6.511700000000000000e+04
-6.489100000000000000e+04
-6.164700000000000000e+04
-5.952900000000000000e+04
-6.326900000000000000e+04
-6.729200000000000000e+04
-6.724900000000000000e+04
-6.403200000000000000e+04
-6.164900000000000000e+04
-6.501900000000000000e+04
-6.884500000000000000e+04
-6.872800000000000000e+04
-6.518900000000000000e+04
-6.261700000000000000e+04
-6.590600000000000000e+04
-6.980900000000000000e+04
-6.975900000000000000e+04
-6.623000000000000000e+04
-6.337100000000000000e+04
-6.643700000000000000e+04
-7.026800000000000000e+04
-7.010200000000000000e+04
-6.646400000000000000e+04
-6.349600000000000000e+04
-6.654000000000000000e+04
-7.059100000000000000e+04
-7.065300000000000000e+04
-6.691400000000000000e+04
-6.292900000000000000e+04
-6.542000000000000000e+04
-6.970400000000000000e+04
-6.995600000000000000e+04
-6.655900000000000000e+04
-6.380400000000000000e+04
-6.686400000000000000e+04
-7.092400000000000000e+04
-7.096200000000000000e+04
-6.731400000000000000e+04
-6.412000000000000000e+04
-6.691500000000000000e+04
-7.090800000000000000e+04
-7.098400000000000000e+04
-6.732200000000000000e+04
-6.385100000000000000e+04
-6.630100000000000000e+04
-7.011100000000000000e+04
-6.992700000000000000e+04
-6.623900000000000000e+04
-6.294600000000000000e+04
-6.564400000000000000e+04
-6.978200000000000000e+04
-7.005600000000000000e+04
-6.652300000000000000e+04
-6.308200000000000000e+04
-6.558800000000000000e+04
-6.964200000000000000e+04
-6.979500000000000000e+04
-6.605600000000000000e+04
-6.248700000000000000e+04
-6.489000000000000000e+04
-6.896000000000000000e+04
-6.926900000000000000e+04
-6.573200000000000000e+04
-6.211300000000000000e+04
-6.434100000000000000e+04
-6.841200000000000000e+04
-6.874800000000000000e+04
-6.528600000000000000e+04
-6.172500000000000000e+04
-6.397600000000000000e+04
-6.818600000000000000e+04
-6.866700000000000000e+04
-6.529300000000000000e+04
-6.167400000000000000e+04
-6.384300000000000000e+04
-6.803200000000000000e+04
-6.851900000000000000e+04
-6.515400000000000000e+04
-6.155400000000000000e+04
-6.370400000000000000e+04
-6.803100000000000000e+04
-6.875600000000000000e+04
-6.559000000000000000e+04
-6.203400000000000000e+04
-6.406400000000000000e+04
-6.834500000000000000e+04
-6.913100000000000000e+04
-6.596000000000000000e+04
-6.227700000000000000e+04
-6.412800000000000000e+04
-6.842400000000000000e+04
-6.926100000000000000e+04
-6.615900000000000000e+04
-6.248400000000000000e+04
-6.430700000000000000e+04
-6.864500000000000000e+04
-6.949300000000000000e+04
-6.640800000000000000e+04
-6.263600000000000000e+04
-6.430300000000000000e+04
-6.864900000000000000e+04
-6.957800000000000000e+04
-6.655800000000000000e+04
-6.276300000000000000e+04
-6.438100000000000000e+04
-6.874300000000000000e+04
-6.970600000000000000e+04
-6.668100000000000000e+04
-6.273400000000000000e+04
-6.417300000000000000e+04
-6.862900000000000000e+04
-6.967200000000000000e+04
-6.666700000000000000e+04
-6.278700000000000000e+04
-6.415900000000000000e+04
-6.852900000000000000e+04
-6.969200000000000000e+04
-6.671700000000000000e+04
-6.277400000000000000e+04
-6.404700000000000000e+04
-6.847100000000000000e+04
-6.972200000000000000e+04
-6.684000000000000000e+04
-6.282200000000000000e+04
-6.400400000000000000e+04
-6.852100000000000000e+04
-6.982600000000000000e+04
-6.684600000000000000e+04
-6.280600000000000000e+04
-6.383300000000000000e+04
-6.831200000000000000e+04
-6.967300000000000000e+04
-6.684600000000000000e+04
-6.283900000000000000e+04
-6.374900000000000000e+04
-6.819000000000000000e+04
-6.959200000000000000e+04
-6.677000000000000000e+04
-6.274600000000000000e+04
-6.354400000000000000e+04
-6.788400000000000000e+04
-6.927400000000000000e+04
-6.649600000000000000e+04
-6.243000000000000000e+04
-6.313600000000000000e+04
-6.758300000000000000e+04
-6.908200000000000000e+04
-6.641800000000000000e+04
-6.234100000000000000e+04
-6.294600000000000000e+04
-6.742100000000000000e+04
-6.898400000000000000e+04
-6.637600000000000000e+04
-6.224800000000000000e+04
-6.275200000000000000e+04
-6.720600000000000000e+04
-6.891400000000000000e+04
-6.637200000000000000e+04
-6.225100000000000000e+04
-6.263900000000000000e+04
-6.707200000000000000e+04
-6.877700000000000000e+04
-6.629200000000000000e+04
-6.214600000000000000e+04
-6.243200000000000000e+04
-6.689500000000000000e+04
-6.873200000000000000e+04
-6.636900000000000000e+04
-6.222500000000000000e+04
-6.237100000000000000e+04
-6.681400000000000000e+04
-6.869700000000000000e+04
-6.630700000000000000e+04
-6.208600000000000000e+04
-6.216000000000000000e+04
-6.663600000000000000e+04
-6.857200000000000000e+04
-6.628400000000000000e+04
-6.207500000000000000e+04
-6.203900000000000000e+04
-6.655600000000000000e+04
-6.863800000000000000e+04
-6.634000000000000000e+04
-6.211500000000000000e+04
-6.194400000000000000e+04
-6.632400000000000000e+04
-6.837900000000000000e+04
-6.616500000000000000e+04
-6.203500000000000000e+04
-6.184100000000000000e+04
-6.623700000000000000e+04
-6.839400000000000000e+04
-6.627000000000000000e+04
-6.215800000000000000e+04
-6.185100000000000000e+04
-6.629500000000000000e+04
-6.861700000000000000e+04
-6.663200000000000000e+04
-6.251000000000000000e+04
-6.211700000000000000e+04
-6.648700000000000000e+04
-6.862600000000000000e+04
-6.641400000000000000e+04
-6.199300000000000000e+04
-6.120400000000000000e+04
-6.558900000000000000e+04
-6.815200000000000000e+04
-6.636900000000000000e+04
-6.221600000000000000e+04
-6.156900000000000000e+04
-6.598900000000000000e+04
-6.841400000000000000e+04
-6.655900000000000000e+04
-6.240200000000000000e+04
-6.163100000000000000e+04
-6.598600000000000000e+04
-6.854600000000000000e+04
-6.671900000000000000e+04
-6.252900000000000000e+04
-6.165200000000000000e+04
-6.594300000000000000e+04
-6.849100000000000000e+04
-6.668600000000000000e+04
-6.250500000000000000e+04
-6.154700000000000000e+04
-6.577800000000000000e+04
-6.827500000000000000e+04
-6.654400000000000000e+04
-6.240400000000000000e+04
-6.139200000000000000e+04
-6.566700000000000000e+04
-6.834100000000000000e+04
-6.668200000000000000e+04
-6.255100000000000000e+04
-6.141400000000000000e+04
-6.558200000000000000e+04
-6.824600000000000000e+04
-6.670600000000000000e+04
-6.256600000000000000e+04
-6.128000000000000000e+04
-6.546700000000000000e+04
-6.825700000000000000e+04
-6.670700000000000000e+04
-6.256700000000000000e+04
-6.120000000000000000e+04
-6.530100000000000000e+04
-6.814600000000000000e+04
-6.668100000000000000e+04
-6.257100000000000000e+04
-6.107700000000000000e+04
-6.510400000000000000e+04
-6.796400000000000000e+04
-6.654500000000000000e+04
-6.247600000000000000e+04
-6.094700000000000000e+04
-6.499200000000000000e+04
-6.794900000000000000e+04
-6.658500000000000000e+04
-6.249000000000000000e+04
-6.088100000000000000e+04
-6.489600000000000000e+04
-6.790700000000000000e+04
-6.666100000000000000e+04
-6.262200000000000000e+04
-6.087800000000000000e+04
-6.479800000000000000e+04
-6.784700000000000000e+04
-6.654400000000000000e+04
-6.245600000000000000e+04
-6.064600000000000000e+04
-6.452200000000000000e+04
-6.757100000000000000e+04
-6.641200000000000000e+04
-6.242300000000000000e+04
-6.053100000000000000e+04
-6.435900000000000000e+04
-6.754000000000000000e+04
-6.643800000000000000e+04
-6.238200000000000000e+04
-6.044100000000000000e+04
-6.429900000000000000e+04
-6.752900000000000000e+04
-6.649900000000000000e+04
-6.250300000000000000e+04
-6.046200000000000000e+04
-6.422900000000000000e+04
-6.754700000000000000e+04
-6.657700000000000000e+04
-6.257600000000000000e+04
-6.041100000000000000e+04
-6.407200000000000000e+04
-6.735500000000000000e+04
-6.645200000000000000e+04
-6.257600000000000000e+04
-6.035800000000000000e+04
-6.395700000000000000e+04
-6.725200000000000000e+04
-6.641900000000000000e+04
-6.247300000000000000e+04
-6.013800000000000000e+04
-6.368500000000000000e+04
-6.710000000000000000e+04
-6.634600000000000000e+04
-6.250200000000000000e+04
-6.022400000000000000e+04
-6.376500000000000000e+04
-6.722100000000000000e+04
-6.655600000000000000e+04
-6.269500000000000000e+04
-6.021800000000000000e+04
-6.368700000000000000e+04
-6.725100000000000000e+04
-6.667400000000000000e+04
-6.284600000000000000e+04
-6.027600000000000000e+04
-6.364700000000000000e+04
-6.723400000000000000e+04
-6.669100000000000000e+04
-6.282400000000000000e+04
-6.004900000000000000e+04
-6.336100000000000000e+04
-6.707500000000000000e+04
-6.670600000000000000e+04
-6.294100000000000000e+04
-6.014100000000000000e+04
-6.335600000000000000e+04
-6.695600000000000000e+04
-6.648500000000000000e+04
-6.273400000000000000e+04
-5.999000000000000000e+04
-6.316500000000000000e+04
-6.685100000000000000e+04
-6.644900000000000000e+04
-6.270200000000000000e+04
-5.986800000000000000e+04
-6.301700000000000000e+04
-6.674300000000000000e+04
-6.644200000000000000e+04
-6.277700000000000000e+04
-5.986700000000000000e+04
-6.289900000000000000e+04
-6.675100000000000000e+04
-6.663400000000000000e+04
-6.293600000000000000e+04
-5.995800000000000000e+04
-6.297500000000000000e+04
-6.687600000000000000e+04
-6.682700000000000000e+04
-6.318900000000000000e+04
-6.013100000000000000e+04
-6.300200000000000000e+04
-6.691600000000000000e+04
-6.697700000000000000e+04
-6.349100000000000000e+04
-6.046800000000000000e+04
-6.331900000000000000e+04
-6.729600000000000000e+04
-6.737400000000000000e+04
-6.378000000000000000e+04
-6.047100000000000000e+04
-6.295300000000000000e+04
-6.665600000000000000e+04
-6.672800000000000000e+04
-6.328800000000000000e+04
-6.022500000000000000e+04
-6.297900000000000000e+04
-6.706700000000000000e+04
-6.728500000000000000e+04
-6.381200000000000000e+04
-6.055500000000000000e+04
-6.310600000000000000e+04
-6.710400000000000000e+04
-6.732300000000000000e+04
-6.388700000000000000e+04
-6.059400000000000000e+04
-6.312600000000000000e+04
-6.722700000000000000e+04
-6.749100000000000000e+04
-6.399800000000000000e+04
-6.064500000000000000e+04
-6.306900000000000000e+04
-6.715400000000000000e+04
-6.750700000000000000e+04
-6.406100000000000000e+04
-6.056700000000000000e+04
-6.279500000000000000e+04
-6.691700000000000000e+04
-6.740200000000000000e+04
-6.408100000000000000e+04
-6.057200000000000000e+04
-6.274700000000000000e+04
-6.693100000000000000e+04
-6.745600000000000000e+04
-6.416300000000000000e+04
-6.061100000000000000e+04
-6.265300000000000000e+04
-6.688100000000000000e+04
-6.748300000000000000e+04
-6.421600000000000000e+04
-6.059800000000000000e+04
-6.260100000000000000e+04
-6.689600000000000000e+04
-6.761600000000000000e+04
-6.444200000000000000e+04
-6.084700000000000000e+04
-6.278200000000000000e+04
-6.708500000000000000e+04
-6.781100000000000000e+04
-6.457600000000000000e+04
-6.088200000000000000e+04
-6.270900000000000000e+04
-6.697600000000000000e+04
-6.775400000000000000e+04
-6.461500000000000000e+04
-6.090100000000000000e+04
-6.263700000000000000e+04
-6.693200000000000000e+04
-6.782200000000000000e+04
-6.474700000000000000e+04
-6.105800000000000000e+04
-6.273900000000000000e+04
-6.706900000000000000e+04
-6.799700000000000000e+04
-6.490400000000000000e+04
-6.112200000000000000e+04
-6.268200000000000000e+04
-6.700700000000000000e+04
-6.800000000000000000e+04
-6.497600000000000000e+04
-6.110900000000000000e+04
-6.250600000000000000e+04
-6.684900000000000000e+04
-6.796800000000000000e+04
-6.501200000000000000e+04
-6.111400000000000000e+04
-6.243900000000000000e+04
-6.677400000000000000e+04
-6.788200000000000000e+04
-6.487600000000000000e+04
-6.094600000000000000e+04
-6.213100000000000000e+04
-6.645700000000000000e+04
-6.764900000000000000e+04
-6.472900000000000000e+04
-6.077300000000000000e+04
-6.187600000000000000e+04
-6.622200000000000000e+04
-6.750600000000000000e+04
-6.463600000000000000e+04
-6.069600000000000000e+04
-6.173500000000000000e+04
-6.611400000000000000e+04
-6.741600000000000000e+04
-6.455600000000000000e+04
-6.054700000000000000e+04
-6.144600000000000000e+04
-6.586100000000000000e+04
-6.738100000000000000e+04
-6.468200000000000000e+04
-6.070400000000000000e+04
-6.153900000000000000e+04
-6.596500000000000000e+04
-6.748100000000000000e+04
-6.482900000000000000e+04
-6.078700000000000000e+04
-6.152200000000000000e+04
-6.596200000000000000e+04
-6.750000000000000000e+04
-6.478700000000000000e+04
-6.071400000000000000e+04
-6.131100000000000000e+04
-6.575100000000000000e+04
-6.740400000000000000e+04
-6.483200000000000000e+04
-6.077000000000000000e+04
-6.129200000000000000e+04
-6.573200000000000000e+04
-6.743100000000000000e+04
-6.494700000000000000e+04
-6.087000000000000000e+04
-6.128100000000000000e+04
-6.576400000000000000e+04
-6.761100000000000000e+04
-6.517100000000000000e+04
-6.111200000000000000e+04
-6.140700000000000000e+04
-6.581700000000000000e+04
-6.764100000000000000e+04
-6.527100000000000000e+04
-6.121700000000000000e+04
-6.142900000000000000e+04
-6.588800000000000000e+04
-6.778500000000000000e+04
-6.539000000000000000e+04
-6.119500000000000000e+04
-6.127200000000000000e+04
-6.565600000000000000e+04
-6.756700000000000000e+04
-6.527900000000000000e+04
-6.118100000000000000e+04
-6.113500000000000000e+04
-6.555100000000000000e+04
-6.762200000000000000e+04
-6.535000000000000000e+04
-6.122100000000000000e+04
-6.114400000000000000e+04
-6.556800000000000000e+04
-6.766600000000000000e+04
-6.538500000000000000e+04
-6.121000000000000000e+04
-6.102000000000000000e+04
-6.549900000000000000e+04
-6.773200000000000000e+04
-6.564500000000000000e+04
-6.154900000000000000e+04
-6.126200000000000000e+04
-6.559700000000000000e+04
-6.773400000000000000e+04
-6.540300000000000000e+04
-6.085900000000000000e+04
-6.012200000000000000e+04
-6.453300000000000000e+04
-6.706100000000000000e+04
-6.511900000000000000e+04
-6.099100000000000000e+04
-6.051800000000000000e+04
-6.492500000000000000e+04
-6.733300000000000000e+04
-6.537500000000000000e+04
-6.119500000000000000e+04
-6.064800000000000000e+04
-6.515800000000000000e+04
-6.753300000000000000e+04
-6.546200000000000000e+04
-6.123700000000000000e+04
-6.048900000000000000e+04
-6.479300000000000000e+04
-6.732800000000000000e+04
-6.546000000000000000e+04
-6.124000000000000000e+04
-6.039500000000000000e+04
-6.472000000000000000e+04
-6.734500000000000000e+04
-6.550600000000000000e+04
-6.118700000000000000e+04
-6.017600000000000000e+04
-6.449100000000000000e+04
-6.714100000000000000e+04
-6.532900000000000000e+04
-6.115100000000000000e+04
-6.021100000000000000e+04
-6.454600000000000000e+04
-6.730500000000000000e+04
-6.550300000000000000e+04
-6.117100000000000000e+04
-5.999400000000000000e+04
-6.424100000000000000e+04
-6.706900000000000000e+04
-6.539200000000000000e+04
-6.118700000000000000e+04
-5.998400000000000000e+04
-6.421300000000000000e+04
-6.704300000000000000e+04
-6.544700000000000000e+04
-6.123900000000000000e+04
-5.993700000000000000e+04
-6.419300000000000000e+04
-6.713500000000000000e+04
-6.562000000000000000e+04
-6.138800000000000000e+04
-5.991100000000000000e+04
-6.410100000000000000e+04
-6.712800000000000000e+04
-6.566000000000000000e+04
-6.142500000000000000e+04
-5.988700000000000000e+04
-6.404600000000000000e+04
-6.705900000000000000e+04
-6.560400000000000000e+04
-6.136900000000000000e+04
-5.975100000000000000e+04
-6.388400000000000000e+04
-6.703500000000000000e+04
-6.572900000000000000e+04
-6.159500000000000000e+04
-5.988300000000000000e+04
-6.394200000000000000e+04
-6.707800000000000000e+04
-6.571900000000000000e+04
-6.152700000000000000e+04
-5.977300000000000000e+04
-6.388200000000000000e+04
-6.712100000000000000e+04
-6.589900000000000000e+04
-6.176700000000000000e+04
-5.990700000000000000e+04
-6.384400000000000000e+04
-6.711600000000000000e+04
-6.600500000000000000e+04
-6.191800000000000000e+04
-6.001700000000000000e+04
-6.402300000000000000e+04
-6.729900000000000000e+04
-6.618600000000000000e+04
-6.207000000000000000e+04
-5.999600000000000000e+04
-6.386500000000000000e+04
-6.722300000000000000e+04
-6.622100000000000000e+04
-6.210500000000000000e+04
-5.986000000000000000e+04
-6.361600000000000000e+04
-6.705200000000000000e+04
-6.607000000000000000e+04
-6.195900000000000000e+04
-5.967200000000000000e+04
-6.337000000000000000e+04
-6.684400000000000000e+04
-6.591100000000000000e+04
-6.185900000000000000e+04
-5.957000000000000000e+04
-6.322500000000000000e+04
-6.682600000000000000e+04
-6.606200000000000000e+04
-6.205100000000000000e+04
-5.968200000000000000e+04
-6.324400000000000000e+04
-6.678200000000000000e+04
-6.609400000000000000e+04
-6.215100000000000000e+04
-5.965200000000000000e+04
-6.320900000000000000e+04
-6.684200000000000000e+04
-6.616900000000000000e+04
-6.221100000000000000e+04
-5.962600000000000000e+04
-6.301800000000000000e+04
-6.662500000000000000e+04
-6.612600000000000000e+04
-6.226700000000000000e+04
-5.960400000000000000e+04
-6.301400000000000000e+04
-6.677600000000000000e+04
-6.628600000000000000e+04
-6.242600000000000000e+04
-5.967400000000000000e+04
-6.295400000000000000e+04
-6.677400000000000000e+04
-6.635100000000000000e+04
-6.245400000000000000e+04
-5.963400000000000000e+04
-6.288700000000000000e+04
-6.666100000000000000e+04
-6.627700000000000000e+04
-6.243100000000000000e+04
-5.955700000000000000e+04
-6.277100000000000000e+04
-6.661400000000000000e+04
-6.628200000000000000e+04
-6.248700000000000000e+04
-5.953900000000000000e+04
-6.265400000000000000e+04
-6.654600000000000000e+04
-6.638300000000000000e+04
-6.265700000000000000e+04
-5.963100000000000000e+04
-6.266000000000000000e+04
-6.663900000000000000e+04
-6.661700000000000000e+04
-6.298800000000000000e+04
-5.995700000000000000e+04
-6.284500000000000000e+04
-6.684600000000000000e+04
-6.683600000000000000e+04
-6.317900000000000000e+04
-5.988600000000000000e+04
-6.247700000000000000e+04
-6.616000000000000000e+04
-6.591200000000000000e+04
-6.224700000000000000e+04
-5.923800000000000000e+04
-6.212700000000000000e+04
-6.627400000000000000e+04
-6.654500000000000000e+04
-6.300600000000000000e+04
-5.968100000000000000e+04
-6.232700000000000000e+04
-6.634600000000000000e+04
-6.650400000000000000e+04
-6.294100000000000000e+04
-5.953600000000000000e+04
-6.204700000000000000e+04
-6.616600000000000000e+04
-6.644700000000000000e+04
-6.288400000000000000e+04
-5.948600000000000000e+04
-6.199200000000000000e+04
-6.620700000000000000e+04
-6.660200000000000000e+04
-6.312500000000000000e+04
-5.971100000000000000e+04
-6.206700000000000000e+04
-6.619700000000000000e+04
-6.656200000000000000e+04
-6.310400000000000000e+04
-5.965500000000000000e+04
-6.189900000000000000e+04
-6.609500000000000000e+04
-6.666900000000000000e+04
-6.331500000000000000e+04
-5.973500000000000000e+04
-6.188500000000000000e+04
-6.603900000000000000e+04
-6.650100000000000000e+04
-6.321000000000000000e+04
-5.965500000000000000e+04
-6.175500000000000000e+04
-6.604200000000000000e+04
-6.664800000000000000e+04
-6.332700000000000000e+04
-5.964700000000000000e+04
-6.153700000000000000e+04
-6.575700000000000000e+04
-6.645200000000000000e+04
-6.321900000000000000e+04
-5.952400000000000000e+04
-6.136800000000000000e+04
-6.557500000000000000e+04
-6.633800000000000000e+04
-6.317700000000000000e+04
-5.946400000000000000e+04
-6.126800000000000000e+04
-6.551700000000000000e+04
-6.630300000000000000e+04
-6.316200000000000000e+04
-5.944900000000000000e+04
-6.107600000000000000e+04
-6.532500000000000000e+04
-6.626400000000000000e+04
-6.327100000000000000e+04
-5.958000000000000000e+04
-6.116100000000000000e+04
-6.542800000000000000e+04
-6.641900000000000000e+04
-6.339700000000000000e+04
-5.962200000000000000e+04
-6.111700000000000000e+04
-6.537600000000000000e+04
-6.638100000000000000e+04
-6.338200000000000000e+04
-5.954900000000000000e+04
-6.091900000000000000e+04
-6.521100000000000000e+04
-6.639100000000000000e+04
-6.352600000000000000e+04
-5.968900000000000000e+04
-6.097600000000000000e+04
-6.526200000000000000e+04
-6.650800000000000000e+04
-6.370900000000000000e+04
-5.992200000000000000e+04
-6.102200000000000000e+04
-6.530500000000000000e+04
-6.660600000000000000e+04
-6.388200000000000000e+04
-6.003200000000000000e+04
-6.100200000000000000e+04
-6.525200000000000000e+04
-6.652100000000000000e+04
-6.374800000000000000e+04
-5.987700000000000000e+04
-6.081100000000000000e+04
-6.510100000000000000e+04
-6.652200000000000000e+04
-6.385600000000000000e+04
-5.989800000000000000e+04
-6.069400000000000000e+04
-6.502500000000000000e+04
-6.648600000000000000e+04
-6.381200000000000000e+04
-5.992100000000000000e+04
-6.068200000000000000e+04
-6.500400000000000000e+04
-6.652300000000000000e+04
-6.391800000000000000e+04
-6.001300000000000000e+04
-6.059600000000000000e+04
-6.488700000000000000e+04
-6.647900000000000000e+04
-6.391700000000000000e+04
-5.990000000000000000e+04
-6.040000000000000000e+04
-6.479600000000000000e+04
-6.647300000000000000e+04
-6.398000000000000000e+04
-5.997400000000000000e+04
-6.036200000000000000e+04
-6.473100000000000000e+04
-6.649900000000000000e+04
-6.403900000000000000e+04
-5.998900000000000000e+04
-6.027000000000000000e+04
-6.458800000000000000e+04
-6.633300000000000000e+04
-6.389900000000000000e+04
-5.986700000000000000e+04
-6.005400000000000000e+04
-6.443300000000000000e+04
-6.629900000000000000e+04
-6.395900000000000000e+04
-5.988100000000000000e+04
-6.003400000000000000e+04
-6.443900000000000000e+04
-6.637400000000000000e+04
-6.414200000000000000e+04
-6.005400000000000000e+04
-6.002800000000000000e+04
-6.439400000000000000e+04
-6.641700000000000000e+04
-6.416700000000000000e+04
-6.003400000000000000e+04
-5.999100000000000000e+04
-6.440400000000000000e+04
-6.637500000000000000e+04
-6.416400000000000000e+04
-6.005300000000000000e+04
-5.988300000000000000e+04
-6.433700000000000000e+04
-6.654000000000000000e+04
-6.448200000000000000e+04
-6.044200000000000000e+04
-6.013700000000000000e+04
-6.439400000000000000e+04
-6.640100000000000000e+04
-6.404400000000000000e+04
-5.966700000000000000e+04
-5.928500000000000000e+04
-6.381600000000000000e+04
-6.621100000000000000e+04
-6.424200000000000000e+04
-6.013100000000000000e+04
-5.960000000000000000e+04
-6.395700000000000000e+04
-6.630500000000000000e+04
-6.436100000000000000e+04
-6.021000000000000000e+04
-5.954800000000000000e+04
-6.388600000000000000e+04
-6.630000000000000000e+04
-6.436200000000000000e+04
-6.006700000000000000e+04
-5.920900000000000000e+04
-6.351400000000000000e+04
-6.598900000000000000e+04
-6.416100000000000000e+04
-6.006400000000000000e+04
-5.927300000000000000e+04
-6.360600000000000000e+04
-6.612700000000000000e+04
-6.426600000000000000e+04
-6.006900000000000000e+04
-5.917000000000000000e+04
-6.347100000000000000e+04
-6.608100000000000000e+04
-6.441700000000000000e+04
-6.023700000000000000e+04
-5.917400000000000000e+04
-6.345100000000000000e+04
-6.617100000000000000e+04
-6.451000000000000000e+04
-6.034800000000000000e+04
-5.920900000000000000e+04
-6.342600000000000000e+04
-6.619400000000000000e+04
-6.458600000000000000e+04
-6.040700000000000000e+04
-5.914500000000000000e+04
-6.334700000000000000e+04
-6.623600000000000000e+04
-6.472000000000000000e+04
-6.058400000000000000e+04
-5.930200000000000000e+04
-6.342800000000000000e+04
-6.633200000000000000e+04
-6.486100000000000000e+04
-6.069800000000000000e+04
-5.925600000000000000e+04
-6.340800000000000000e+04
-6.632900000000000000e+04
-6.495100000000000000e+04
-6.084500000000000000e+04
-5.932700000000000000e+04
-6.341700000000000000e+04
-6.643000000000000000e+04
-6.513400000000000000e+04
-6.103200000000000000e+04
-5.944800000000000000e+04
-6.351600000000000000e+04
-6.663800000000000000e+04
-6.542100000000000000e+04
-6.133500000000000000e+04
-5.956600000000000000e+04
-6.355100000000000000e+04
-6.665600000000000000e+04
-6.542300000000000000e+04
-6.130400000000000000e+04
-5.942900000000000000e+04
-6.335200000000000000e+04
-6.647800000000000000e+04
-6.521500000000000000e+04
-6.111100000000000000e+04
-5.927800000000000000e+04
-6.320200000000000000e+04
-6.640400000000000000e+04
-6.530200000000000000e+04
-6.127700000000000000e+04
-5.937100000000000000e+04
-6.324900000000000000e+04
-6.647000000000000000e+04
-6.534200000000000000e+04
-6.121100000000000000e+04
-5.914100000000000000e+04
-6.291200000000000000e+04
-6.619800000000000000e+04
-6.513100000000000000e+04
-6.103500000000000000e+04
-5.884400000000000000e+04
-6.258600000000000000e+04
-6.599100000000000000e+04
-6.508900000000000000e+04
-6.111400000000000000e+04
-5.892700000000000000e+04
-6.260700000000000000e+04
-6.599000000000000000e+04
-6.506600000000000000e+04
-6.104100000000000000e+04
-5.876400000000000000e+04
-6.237100000000000000e+04
-6.584000000000000000e+04
-6.499100000000000000e+04
-6.095700000000000000e+04
-5.857900000000000000e+04
-6.221000000000000000e+04
-6.570700000000000000e+04
-6.488100000000000000e+04
-6.084700000000000000e+04
-5.839200000000000000e+04
-6.187100000000000000e+04
-6.540500000000000000e+04
-6.467700000000000000e+04
-6.072000000000000000e+04
-5.813300000000000000e+04
-6.166400000000000000e+04
-6.536000000000000000e+04
-6.483000000000000000e+04
-6.092000000000000000e+04
-5.829700000000000000e+04
-6.180900000000000000e+04
-6.555000000000000000e+04
-6.505100000000000000e+04
-6.122800000000000000e+04
-5.859300000000000000e+04
-6.203800000000000000e+04
-6.576700000000000000e+04
-6.530900000000000000e+04
-6.148100000000000000e+04
-5.867600000000000000e+04
-6.194100000000000000e+04
-6.575800000000000000e+04
-6.532800000000000000e+04
-6.136200000000000000e+04
-5.838100000000000000e+04
-6.157300000000000000e+04
-6.537100000000000000e+04
-6.504400000000000000e+04
-6.119300000000000000e+04
-5.818100000000000000e+04
-6.126600000000000000e+04
-6.514600000000000000e+04
-6.485300000000000000e+04
-6.103700000000000000e+04
-5.798700000000000000e+04
-6.112400000000000000e+04
-6.517100000000000000e+04
-6.502100000000000000e+04
-6.132600000000000000e+04
-5.832900000000000000e+04
-6.138400000000000000e+04
-6.539300000000000000e+04
-6.525100000000000000e+04
-6.149500000000000000e+04
-5.823100000000000000e+04
-6.097700000000000000e+04
-6.469500000000000000e+04
-6.447700000000000000e+04
-6.093100000000000000e+04
-5.789700000000000000e+04
-6.088700000000000000e+04
-6.501200000000000000e+04
-6.510200000000000000e+04
-6.147100000000000000e+04
-5.818600000000000000e+04
-6.100400000000000000e+04
-6.514700000000000000e+04
-6.521200000000000000e+04
-6.153600000000000000e+04
-5.816400000000000000e+04
-6.080700000000000000e+04
-6.494400000000000000e+04
-6.511900000000000000e+04
-6.152200000000000000e+04
-5.814600000000000000e+04
-6.075100000000000000e+04
-6.492200000000000000e+04
-6.509700000000000000e+04
-6.145300000000000000e+04
-5.791400000000000000e+04
-6.038500000000000000e+04
-6.465500000000000000e+04
-6.496900000000000000e+04
-6.145300000000000000e+04
-5.789200000000000000e+04
-6.018400000000000000e+04
-6.444200000000000000e+04
-6.488100000000000000e+04
-6.144700000000000000e+04
-5.789200000000000000e+04
-6.018300000000000000e+04
-6.449000000000000000e+04
-6.495200000000000000e+04
-6.150300000000000000e+04
-5.784800000000000000e+04
-6.001000000000000000e+04
-6.431100000000000000e+04
-6.481900000000000000e+04
-6.143700000000000000e+04
-5.777900000000000000e+04
-5.998500000000000000e+04
-6.442400000000000000e+04
-6.491700000000000000e+04
-6.143400000000000000e+04
-5.767200000000000000e+04
-5.972800000000000000e+04
-6.416200000000000000e+04
-6.490100000000000000e+04
-6.163800000000000000e+04
-5.790600000000000000e+04
-5.981000000000000000e+04
-6.421000000000000000e+04
-6.497900000000000000e+04
-6.181400000000000000e+04
-5.819700000000000000e+04
-6.008100000000000000e+04
-6.451900000000000000e+04
-6.525300000000000000e+04
-6.194000000000000000e+04
-5.806500000000000000e+04
-5.972100000000000000e+04
-6.407500000000000000e+04
-6.485600000000000000e+04
-6.158900000000000000e+04
-5.765200000000000000e+04
-5.913300000000000000e+04
-6.356400000000000000e+04
-6.449600000000000000e+04
-6.139100000000000000e+04
-5.759600000000000000e+04
-5.921700000000000000e+04
-6.380600000000000000e+04
-6.489200000000000000e+04
-6.178400000000000000e+04
-5.784700000000000000e+04
-5.923100000000000000e+04
-6.379400000000000000e+04
-6.502000000000000000e+04
-6.201300000000000000e+04
-5.801300000000000000e+04
-5.930100000000000000e+04
-6.387300000000000000e+04
-6.516500000000000000e+04
-6.219200000000000000e+04
-5.817000000000000000e+04
-5.932800000000000000e+04
-6.391100000000000000e+04
-6.517600000000000000e+04
-6.213200000000000000e+04
-5.800600000000000000e+04
-5.909400000000000000e+04
-6.372000000000000000e+04
-6.508600000000000000e+04
-6.213700000000000000e+04
-5.800500000000000000e+04
-5.897000000000000000e+04
-6.369000000000000000e+04
-6.516500000000000000e+04
-6.231900000000000000e+04
-5.818800000000000000e+04
-5.909700000000000000e+04
-6.378700000000000000e+04
-6.528500000000000000e+04
-6.234200000000000000e+04
-5.799200000000000000e+04
-5.865600000000000000e+04
-6.331200000000000000e+04
-6.483900000000000000e+04
-6.188200000000000000e+04
-5.749300000000000000e+04
-5.805500000000000000e+04
-6.272900000000000000e+04
-6.438700000000000000e+04
-6.152300000000000000e+04
-5.699300000000000000e+04
-5.734900000000000000e+04
-6.205300000000000000e+04
-6.371600000000000000e+04
-6.089300000000000000e+04
-5.650700000000000000e+04
-5.698200000000000000e+04
-6.190700000000000000e+04
-6.384700000000000000e+04
-6.127900000000000000e+04
-5.702900000000000000e+04
-5.748400000000000000e+04
-6.239600000000000000e+04
-6.442700000000000000e+04
-6.187700000000000000e+04
-5.750200000000000000e+04
-5.773700000000000000e+04
-6.256200000000000000e+04
-6.455700000000000000e+04
-6.200700000000000000e+04
-5.755600000000000000e+04
-5.762900000000000000e+04
-6.241300000000000000e+04
-6.445900000000000000e+04
-6.196000000000000000e+04
-5.752800000000000000e+04
-5.753900000000000000e+04
-6.234700000000000000e+04
-6.446800000000000000e+04
-6.203100000000000000e+04
-5.766800000000000000e+04
-5.759900000000000000e+04
-6.240300000000000000e+04
-6.464400000000000000e+04
-6.237600000000000000e+04
-5.801500000000000000e+04
-5.773900000000000000e+04
-6.238600000000000000e+04
-6.447400000000000000e+04
-6.187600000000000000e+04
-5.724600000000000000e+04
-5.685100000000000000e+04
-6.172900000000000000e+04
-6.421200000000000000e+04
-6.205500000000000000e+04
-5.768900000000000000e+04
-5.727400000000000000e+04
-6.196200000000000000e+04
-6.436700000000000000e+04
-6.219900000000000000e+04
-5.773600000000000000e+04
-5.713500000000000000e+04
-6.180800000000000000e+04
-6.427400000000000000e+04
-6.215400000000000000e+04
-5.773200000000000000e+04
-5.706400000000000000e+04
-6.174900000000000000e+04
-6.429600000000000000e+04
-6.220200000000000000e+04
-5.771400000000000000e+04
-5.688600000000000000e+04
-6.150400000000000000e+04
-6.412700000000000000e+04
-6.215600000000000000e+04
-5.778700000000000000e+04
-5.688900000000000000e+04
-6.148900000000000000e+04
-6.424300000000000000e+04
-6.232800000000000000e+04
-5.787600000000000000e+04
-5.681500000000000000e+04
-6.139700000000000000e+04
-6.418100000000000000e+04
-6.231600000000000000e+04
-5.788600000000000000e+04
-5.673000000000000000e+04
-6.124300000000000000e+04
-6.404700000000000000e+04
-6.219600000000000000e+04
-5.780900000000000000e+04
-5.657600000000000000e+04
-6.110700000000000000e+04
-6.398900000000000000e+04
-6.222500000000000000e+04
-5.780900000000000000e+04
-5.645000000000000000e+04
-6.087400000000000000e+04
-6.382800000000000000e+04
-6.220600000000000000e+04
-5.784000000000000000e+04
-5.633400000000000000e+04
-6.082700000000000000e+04
-6.392700000000000000e+04
-6.228000000000000000e+04
-5.790700000000000000e+04
-5.642200000000000000e+04
-6.081700000000000000e+04
-6.389500000000000000e+04
-6.233400000000000000e+04
-5.788700000000000000e+04
-5.622000000000000000e+04
-6.057700000000000000e+04
-6.375400000000000000e+04
-6.235800000000000000e+04
-5.805100000000000000e+04
-5.631600000000000000e+04
-6.056600000000000000e+04
-6.382000000000000000e+04
-6.241900000000000000e+04
-5.801100000000000000e+04
-5.610800000000000000e+04
-6.032600000000000000e+04
-6.361900000000000000e+04
-6.227200000000000000e+04
-5.793900000000000000e+04
-5.595500000000000000e+04
-6.014400000000000000e+04
-6.352200000000000000e+04
-6.233100000000000000e+04
-5.802900000000000000e+04
-5.588600000000000000e+04
-6.004100000000000000e+04
-6.351100000000000000e+04
-6.231600000000000000e+04
-5.801700000000000000e+04
-5.586400000000000000e+04
-5.998900000000000000e+04
-6.351900000000000000e+04
-6.240900000000000000e+04
-5.812300000000000000e+04
-5.583600000000000000e+04
-5.980000000000000000e+04
-6.336700000000000000e+04
-6.236300000000000000e+04
-5.816100000000000000e+04
-5.581400000000000000e+04
-5.966200000000000000e+04
-6.321900000000000000e+04
-6.228300000000000000e+04
-5.804100000000000000e+04
-5.559200000000000000e+04
-5.951400000000000000e+04
-6.317200000000000000e+04
-6.230100000000000000e+04
-5.808200000000000000e+04
-5.549500000000000000e+04
-5.930600000000000000e+04
-6.300600000000000000e+04
-6.223200000000000000e+04
-5.810600000000000000e+04
-5.549300000000000000e+04
-5.919300000000000000e+04
-6.298100000000000000e+04
-6.236400000000000000e+04
-5.824600000000000000e+04
-5.553200000000000000e+04
-5.912400000000000000e+04
-6.290200000000000000e+04
-6.221500000000000000e+04
-5.807200000000000000e+04
-5.538800000000000000e+04
-5.892100000000000000e+04
-6.236100000000000000e+04
-6.111600000000000000e+04
-5.666800000000000000e+04
-5.419100000000000000e+04
-5.764100000000000000e+04
-6.062100000000000000e+04
-5.953500000000000000e+04
-5.538200000000000000e+04
-5.265600000000000000e+04
-5.519200000000000000e+04
-5.951000000000000000e+04
-6.046700000000000000e+04
-5.507600000000000000e+04
-5.018600000000000000e+04
-5.609200000000000000e+04
-5.837800000000000000e+04
-5.844100000000000000e+04
-5.677900000000000000e+04
-5.453600000000000000e+04
-5.748100000000000000e+04
-6.004100000000000000e+04
-5.839900000000000000e+04
-5.363600000000000000e+04
-5.146400000000000000e+04
-5.299700000000000000e+04
-5.724700000000000000e+04
-5.972700000000000000e+04
-5.630700000000000000e+04
-5.193400000000000000e+04
-5.467500000000000000e+04
-5.769200000000000000e+04
-5.995100000000000000e+04
-5.660100000000000000e+04
-5.233500000000000000e+04
-5.564900000000000000e+04
-6.009100000000000000e+04
-5.934800000000000000e+04
-5.318600000000000000e+04
-4.973800000000000000e+04
-5.534700000000000000e+04
-5.935400000000000000e+04
-5.738600000000000000e+04
-5.186400000000000000e+04
-4.754200000000000000e+04
-5.167700000000000000e+04
-5.280700000000000000e+04
-4.973300000000000000e+04
-4.581600000000000000e+04
-4.527100000000000000e+04
-4.486900000000000000e+04
-4.701200000000000000e+04
-5.016700000000000000e+04
-4.712500000000000000e+04
-4.436400000000000000e+04
-4.688300000000000000e+04
-4.932100000000000000e+04
-4.934600000000000000e+04
-4.697400000000000000e+04
-4.243100000000000000e+04
-4.455000000000000000e+04
-4.988400000000000000e+04
-4.996000000000000000e+04
-4.573000000000000000e+04
-4.284900000000000000e+04
-4.499700000000000000e+04
-4.805200000000000000e+04
-5.102100000000000000e+04
-4.622600000000000000e+04
-4.255400000000000000e+04
-4.558900000000000000e+04
-4.995500000000000000e+04
-5.026100000000000000e+04
-4.651600000000000000e+04
-4.290100000000000000e+04
-4.455700000000000000e+04
-5.109100000000000000e+04
-5.100400000000000000e+04
-4.621400000000000000e+04
-4.419200000000000000e+04
-4.525200000000000000e+04
-5.030100000000000000e+04
-5.228200000000000000e+04
-4.710900000000000000e+04
-4.195700000000000000e+04
-4.554300000000000000e+04
-5.066400000000000000e+04
-5.003200000000000000e+04
-4.669000000000000000e+04
-4.124700000000000000e+04
-4.485900000000000000e+04
-4.941900000000000000e+04
-4.925000000000000000e+04
-4.556600000000000000e+04
-4.369900000000000000e+04
-4.405900000000000000e+04
-4.789400000000000000e+04
-4.960800000000000000e+04
-4.500400000000000000e+04
-4.490900000000000000e+04
-4.449200000000000000e+04
-4.816900000000000000e+04
-4.967000000000000000e+04
-4.663800000000000000e+04
-4.279900000000000000e+04
-4.418200000000000000e+04
-4.854200000000000000e+04
-5.061200000000000000e+04
-4.701200000000000000e+04
-4.424400000000000000e+04
-4.443200000000000000e+04
-4.936100000000000000e+04
-5.079700000000000000e+04
-4.893300000000000000e+04
-4.395400000000000000e+04
-4.405500000000000000e+04
-4.973400000000000000e+04
-5.039200000000000000e+04
-4.726900000000000000e+04
-4.340200000000000000e+04
-4.558600000000000000e+04
-4.957500000000000000e+04
-5.027900000000000000e+04
-4.751400000000000000e+04
-4.331800000000000000e+04
-4.431100000000000000e+04
-4.849400000000000000e+04
-4.967000000000000000e+04
-4.672400000000000000e+04
-4.295200000000000000e+04
-4.378100000000000000e+04
-4.817900000000000000e+04
-4.937600000000000000e+04
-4.673800000000000000e+04
-4.262500000000000000e+04
-4.318700000000000000e+04
-4.816200000000000000e+04
-4.989100000000000000e+04
-4.706200000000000000e+04
-4.325400000000000000e+04
-4.419500000000000000e+04
-4.895800000000000000e+04
-5.066600000000000000e+04
-4.822200000000000000e+04
-4.451600000000000000e+04
-4.542800000000000000e+04
-5.012500000000000000e+04
-5.202400000000000000e+04
-4.987400000000000000e+04
-4.617800000000000000e+04
-4.703100000000000000e+04
-5.188500000000000000e+04
-5.381000000000000000e+04
-5.154600000000000000e+04
-4.816400000000000000e+04
-4.852900000000000000e+04
-5.322200000000000000e+04
-5.559900000000000000e+04
-5.370400000000000000e+04
-5.032100000000000000e+04
-5.117500000000000000e+04
-5.587300000000000000e+04
-5.761500000000000000e+04
-5.527100000000000000e+04
-5.174300000000000000e+04
-5.264100000000000000e+04
-5.775600000000000000e+04
-6.017000000000000000e+04
-5.821100000000000000e+04
-5.450800000000000000e+04
-5.475200000000000000e+04
-5.939800000000000000e+04
-6.167200000000000000e+04
-5.960100000000000000e+04
-5.564400000000000000e+04
-5.565800000000000000e+04
-6.014400000000000000e+04
-6.226400000000000000e+04
-6.008000000000000000e+04
-5.603100000000000000e+04
-5.589700000000000000e+04
-6.018100000000000000e+04
-6.141800000000000000e+04
-5.890900000000000000e+04
-5.547400000000000000e+04
-5.602900000000000000e+04
-6.107000000000000000e+04
-6.357700000000000000e+04
-6.153800000000000000e+04
-5.737000000000000000e+04
-5.691900000000000000e+04
-6.137700000000000000e+04
-6.341700000000000000e+04
-6.053100000000000000e+04
-5.533300000000000000e+04
-5.486800000000000000e+04
-5.969600000000000000e+04
-6.224000000000000000e+04
-6.003400000000000000e+04
-5.555400000000000000e+04
-5.474900000000000000e+04
-5.933100000000000000e+04
-6.185100000000000000e+04
-5.983100000000000000e+04
-5.545100000000000000e+04
-5.460100000000000000e+04
-5.894900000000000000e+04
-6.127600000000000000e+04
-5.903100000000000000e+04
-5.441800000000000000e+04
-5.350800000000000000e+04
-5.805700000000000000e+04
-6.060800000000000000e+04
-5.861400000000000000e+04
-5.414600000000000000e+04
-5.316900000000000000e+04
-5.772700000000000000e+04
-6.053600000000000000e+04
-5.881400000000000000e+04
-5.447200000000000000e+04
-5.345800000000000000e+04
-5.809400000000000000e+04
-6.096300000000000000e+04
-5.921600000000000000e+04
-5.491900000000000000e+04
-5.387900000000000000e+04
-5.855200000000000000e+04
-6.157400000000000000e+04
-5.991900000000000000e+04
-5.563300000000000000e+04
-5.444900000000000000e+04
-5.901600000000000000e+04
-6.204400000000000000e+04
-6.048400000000000000e+04
-5.623200000000000000e+04
-5.498900000000000000e+04
-5.956400000000000000e+04
-6.264900000000000000e+04
-6.113900000000000000e+04
-5.685100000000000000e+04
-5.537100000000000000e+04
-5.971600000000000000e+04
-6.282700000000000000e+04
-6.136000000000000000e+04
-5.706600000000000000e+04
-5.551400000000000000e+04
-5.983200000000000000e+04
-6.289800000000000000e+04
-6.154700000000000000e+04
-5.738500000000000000e+04
-5.574300000000000000e+04
-6.007700000000000000e+04
-6.328400000000000000e+04
-6.191900000000000000e+04
-5.766900000000000000e+04
-5.582500000000000000e+04
-6.005900000000000000e+04
-6.332600000000000000e+04
-6.206700000000000000e+04
-5.777100000000000000e+04
-5.582600000000000000e+04
-5.998700000000000000e+04
-6.326600000000000000e+04
-6.207100000000000000e+04
-5.781200000000000000e+04
-5.570200000000000000e+04
-5.991800000000000000e+04
-6.336700000000000000e+04
-6.218600000000000000e+04
-5.786500000000000000e+04
-5.568200000000000000e+04
-5.983900000000000000e+04
-6.334400000000000000e+04
-6.217100000000000000e+04
-5.779600000000000000e+04
-5.544500000000000000e+04
-5.949600000000000000e+04
-6.307600000000000000e+04
-6.201400000000000000e+04
-5.762000000000000000e+04
-5.517400000000000000e+04
-5.920600000000000000e+04
-6.285400000000000000e+04
-6.186900000000000000e+04
-5.749900000000000000e+04
-5.500900000000000000e+04
-5.902200000000000000e+04
-6.266300000000000000e+04
-6.168700000000000000e+04
-5.730700000000000000e+04
-5.471700000000000000e+04
-5.861400000000000000e+04
-6.234000000000000000e+04
-6.145900000000000000e+04
-5.711600000000000000e+04
-5.443700000000000000e+04
-5.836200000000000000e+04
-6.222500000000000000e+04
-6.141600000000000000e+04
-5.711600000000000000e+04
-5.435100000000000000e+04
-5.813000000000000000e+04
-6.203500000000000000e+04
-6.133100000000000000e+04
-5.709400000000000000e+04
-5.422900000000000000e+04
-5.785500000000000000e+04
-6.172000000000000000e+04
-6.110100000000000000e+04
-5.690700000000000000e+04
-5.389300000000000000e+04
-5.744800000000000000e+04
-6.138800000000000000e+04
-6.084600000000000000e+04
-5.673900000000000000e+04
-5.367800000000000000e+04
-5.716700000000000000e+04
-6.118700000000000000e+04
-6.072000000000000000e+04
-5.666600000000000000e+04
-5.358900000000000000e+04
-5.695200000000000000e+04
-6.096700000000000000e+04
-6.058400000000000000e+04
-5.660200000000000000e+04
-5.344400000000000000e+04
-5.673400000000000000e+04
-6.080200000000000000e+04
-6.052800000000000000e+04
-5.650900000000000000e+04
-5.326200000000000000e+04
-5.642200000000000000e+04
-6.052600000000000000e+04
-6.040100000000000000e+04
-5.650200000000000000e+04
-5.320900000000000000e+04
-5.635900000000000000e+04
-6.053600000000000000e+04
-6.041600000000000000e+04
-5.659000000000000000e+04
-5.322200000000000000e+04
-5.627500000000000000e+04
-6.053900000000000000e+04
-6.059600000000000000e+04
-5.687100000000000000e+04
-5.361000000000000000e+04
-5.663400000000000000e+04
-6.102100000000000000e+04
-6.117700000000000000e+04
-5.733500000000000000e+04
-5.365000000000000000e+04
-5.621700000000000000e+04
-6.028400000000000000e+04
-6.032400000000000000e+04
-5.659200000000000000e+04
-5.318200000000000000e+04
-5.606500000000000000e+04
-6.052400000000000000e+04
-6.077000000000000000e+04
-5.696500000000000000e+04
-5.333300000000000000e+04
-5.604600000000000000e+04
-6.045900000000000000e+04
-6.066800000000000000e+04
-5.686600000000000000e+04
-5.311700000000000000e+04
-5.577300000000000000e+04
-6.026400000000000000e+04
-6.061800000000000000e+04
-5.691900000000000000e+04
-5.313100000000000000e+04
-5.565700000000000000e+04
-6.017400000000000000e+04
-6.059200000000000000e+04
-5.690100000000000000e+04
-5.301300000000000000e+04
-5.542900000000000000e+04
-5.994800000000000000e+04
-6.040900000000000000e+04
-5.674000000000000000e+04
-5.282500000000000000e+04
-5.515200000000000000e+04
-5.972800000000000000e+04
-6.028400000000000000e+04
-5.668700000000000000e+04
-5.279700000000000000e+04
-5.499300000000000000e+04
-5.957900000000000000e+04
-6.015700000000000000e+04
-5.661600000000000000e+04
-5.273800000000000000e+04
-5.488700000000000000e+04
-5.957600000000000000e+04
-6.036000000000000000e+04
-5.694300000000000000e+04
-5.292600000000000000e+04
-5.490300000000000000e+04
-5.955400000000000000e+04
-6.032600000000000000e+04
-5.684700000000000000e+04
-5.273300000000000000e+04
-5.464400000000000000e+04
-5.940400000000000000e+04
-6.037700000000000000e+04
-5.703200000000000000e+04
-5.290700000000000000e+04
-5.459900000000000000e+04
-5.929400000000000000e+04
-6.027200000000000000e+04
-5.699400000000000000e+04
-5.290100000000000000e+04
-5.460400000000000000e+04
-5.936700000000000000e+04
-6.044100000000000000e+04
-5.715000000000000000e+04
-5.298100000000000000e+04
-5.441900000000000000e+04
-5.907300000000000000e+04
-6.019500000000000000e+04
-5.693900000000000000e+04
-5.278100000000000000e+04
-5.421200000000000000e+04
-5.894600000000000000e+04
-6.016600000000000000e+04
-5.700500000000000000e+04
-5.272400000000000000e+04
-5.396600000000000000e+04
-5.870700000000000000e+04
-5.995400000000000000e+04
-5.682700000000000000e+04
-5.264300000000000000e+04
-5.387000000000000000e+04
-5.865000000000000000e+04
-5.992900000000000000e+04
-5.686400000000000000e+04
-5.259400000000000000e+04
-5.365100000000000000e+04
-5.844100000000000000e+04
-5.988900000000000000e+04
-5.691500000000000000e+04
-5.259200000000000000e+04
-5.357900000000000000e+04
-5.838900000000000000e+04
-5.992000000000000000e+04
-5.698100000000000000e+04
-5.255200000000000000e+04
-5.336600000000000000e+04
-5.821900000000000000e+04
-5.982900000000000000e+04
-5.693600000000000000e+04
-5.253700000000000000e+04
-5.329100000000000000e+04
-5.816600000000000000e+04
-5.987900000000000000e+04
-5.702600000000000000e+04
-5.266700000000000000e+04
-5.329100000000000000e+04
-5.817100000000000000e+04
-5.997400000000000000e+04
-5.714700000000000000e+04
-5.275200000000000000e+04
-5.320400000000000000e+04
-5.794800000000000000e+04
-5.979700000000000000e+04
-5.716500000000000000e+04
-5.278900000000000000e+04
-5.305600000000000000e+04
-5.778600000000000000e+04
-5.968400000000000000e+04
-5.702900000000000000e+04
-5.262000000000000000e+04
-5.290400000000000000e+04
-5.764100000000000000e+04
-5.961100000000000000e+04
-5.703600000000000000e+04
-5.263900000000000000e+04
-5.275200000000000000e+04
-5.755800000000000000e+04
-5.959900000000000000e+04
-5.707600000000000000e+04
-5.265400000000000000e+04
-5.265400000000000000e+04
-5.738700000000000000e+04
-5.951300000000000000e+04
-5.703900000000000000e+04
-5.262600000000000000e+04
-5.254600000000000000e+04
-5.729900000000000000e+04
-5.951400000000000000e+04
-5.711800000000000000e+04
-5.269100000000000000e+04
-5.242000000000000000e+04
-5.713500000000000000e+04
-5.948400000000000000e+04
-5.716600000000000000e+04
-5.278200000000000000e+04
-5.247400000000000000e+04
-5.714900000000000000e+04
-5.947300000000000000e+04
-5.722500000000000000e+04
-5.285800000000000000e+04
-5.252700000000000000e+04
-5.725200000000000000e+04
-5.966000000000000000e+04
-5.747600000000000000e+04
-5.312600000000000000e+04
-5.260600000000000000e+04
-5.711300000000000000e+04
-5.927700000000000000e+04
-5.685700000000000000e+04
-5.234200000000000000e+04
-5.184200000000000000e+04
-5.656200000000000000e+04
-5.917000000000000000e+04
-5.724400000000000000e+04
-5.296400000000000000e+04
-5.228500000000000000e+04
-5.685600000000000000e+04
-5.940700000000000000e+04
-5.746000000000000000e+04
-5.306600000000000000e+04
-5.218800000000000000e+04
-5.675700000000000000e+04
-5.945100000000000000e+04
-5.757600000000000000e+04
-5.322900000000000000e+04
-5.224900000000000000e+04
-5.672700000000000000e+04
-5.939600000000000000e+04
-5.757700000000000000e+04
-5.321600000000000000e+04
-5.204700000000000000e+04
-5.649100000000000000e+04
-5.929000000000000000e+04
-5.756200000000000000e+04
-5.332200000000000000e+04
-5.220200000000000000e+04
-5.665700000000000000e+04
-5.945200000000000000e+04
-5.780000000000000000e+04
-5.349400000000000000e+04
-5.220700000000000000e+04
-5.666800000000000000e+04
-5.960300000000000000e+04
-5.797400000000000000e+04
-5.364000000000000000e+04
-5.221600000000000000e+04
-5.656700000000000000e+04
-5.945500000000000000e+04
-5.783700000000000000e+04
-5.351500000000000000e+04
-5.197200000000000000e+04
-5.637100000000000000e+04
-5.938200000000000000e+04
-5.775900000000000000e+04
-5.344100000000000000e+04
-5.188200000000000000e+04
-5.621700000000000000e+04
-5.931400000000000000e+04
-5.781300000000000000e+04
-5.352200000000000000e+04
-5.186900000000000000e+04
-5.614200000000000000e+04
-5.935400000000000000e+04
-5.803800000000000000e+04
-5.378600000000000000e+04
-5.201000000000000000e+04
-5.625100000000000000e+04
-5.943600000000000000e+04
-5.813900000000000000e+04
-5.386600000000000000e+04
-5.194600000000000000e+04
-5.614100000000000000e+04
-5.940100000000000000e+04
-5.820800000000000000e+04
-5.401800000000000000e+04
-5.198200000000000000e+04
-5.604900000000000000e+04
-5.947400000000000000e+04
-5.837100000000000000e+04
-5.410100000000000000e+04
-5.195900000000000000e+04
-5.600300000000000000e+04
-5.933300000000000000e+04
-5.813600000000000000e+04
-5.389000000000000000e+04
-5.165200000000000000e+04
-5.562100000000000000e+04
-5.910800000000000000e+04
-5.812400000000000000e+04
-5.398200000000000000e+04
-5.175600000000000000e+04
-5.571700000000000000e+04
-5.928100000000000000e+04
-5.836500000000000000e+04
-5.423600000000000000e+04
-5.183900000000000000e+04
-5.572200000000000000e+04
-5.933900000000000000e+04
-5.848900000000000000e+04
-5.442300000000000000e+04
-5.200700000000000000e+04
-5.583600000000000000e+04
-5.944000000000000000e+04
-5.862900000000000000e+04
-5.451200000000000000e+04
-5.195300000000000000e+04
-5.562200000000000000e+04
-5.928400000000000000e+04
-5.857400000000000000e+04
-5.455300000000000000e+04
-5.184700000000000000e+04
-5.548100000000000000e+04
-5.927000000000000000e+04
-5.866100000000000000e+04
-5.464200000000000000e+04
-5.195000000000000000e+04
-5.561900000000000000e+04
-5.949800000000000000e+04
-5.892600000000000000e+04
-5.487100000000000000e+04
-5.200200000000000000e+04
-5.554500000000000000e+04
-5.941600000000000000e+04
-5.891700000000000000e+04
-5.497000000000000000e+04
-5.210200000000000000e+04
-5.557000000000000000e+04
-5.954500000000000000e+04
-5.910400000000000000e+04
-5.514000000000000000e+04
-5.214700000000000000e+04
-5.550700000000000000e+04
-5.946200000000000000e+04
-5.909900000000000000e+04
-5.523600000000000000e+04
-5.229400000000000000e+04
-5.555200000000000000e+04
-5.951700000000000000e+04
-5.926100000000000000e+04
-5.541600000000000000e+04
-5.236200000000000000e+04
-5.554400000000000000e+04
-5.961600000000000000e+04
-5.946900000000000000e+04
-5.562400000000000000e+04
-5.244600000000000000e+04
-5.555700000000000000e+04
-5.971100000000000000e+04
-5.964100000000000000e+04
-5.584500000000000000e+04
-5.259700000000000000e+04
-5.560100000000000000e+04
-5.967900000000000000e+04
-5.959100000000000000e+04
-5.580100000000000000e+04
-5.247400000000000000e+04
-5.541100000000000000e+04
-5.962400000000000000e+04
-5.971400000000000000e+04
-5.607100000000000000e+04
-5.275700000000000000e+04
-5.559000000000000000e+04
-5.987900000000000000e+04
-6.006100000000000000e+04
-5.636500000000000000e+04
-5.279900000000000000e+04
-5.529900000000000000e+04
-5.932900000000000000e+04
-5.947500000000000000e+04
-5.594800000000000000e+04
-5.259200000000000000e+04
-5.532600000000000000e+04
-5.972000000000000000e+04
-6.003000000000000000e+04
-5.645100000000000000e+04
-5.286200000000000000e+04
-5.543200000000000000e+04
-5.985000000000000000e+04
-6.023900000000000000e+04
-5.667800000000000000e+04
-5.308600000000000000e+04
-5.555400000000000000e+04
-5.986600000000000000e+04
-6.027200000000000000e+04
-5.674100000000000000e+04
-5.298000000000000000e+04
-5.525100000000000000e+04
-5.971800000000000000e+04
-6.027400000000000000e+04
-5.680400000000000000e+04
-5.304000000000000000e+04
-5.521100000000000000e+04
-5.962300000000000000e+04
-6.021200000000000000e+04
-5.670900000000000000e+04
-5.286400000000000000e+04
-5.497200000000000000e+04
-5.948900000000000000e+04
-6.020200000000000000e+04
-5.685100000000000000e+04
-5.302500000000000000e+04
-5.502400000000000000e+04
-5.955500000000000000e+04
-6.033200000000000000e+04
-5.703200000000000000e+04
-5.318900000000000000e+04
-5.513000000000000000e+04
-5.967200000000000000e+04
-6.044100000000000000e+04
-5.714400000000000000e+04
-5.314600000000000000e+04
-5.492000000000000000e+04
-5.947400000000000000e+04
-6.039300000000000000e+04
-5.721000000000000000e+04
-5.329600000000000000e+04
-5.498500000000000000e+04
-5.960900000000000000e+04
-6.060600000000000000e+04
-5.744000000000000000e+04
-5.345100000000000000e+04
-5.499400000000000000e+04
-5.962200000000000000e+04
-6.068100000000000000e+04
-5.758600000000000000e+04
-5.363600000000000000e+04
-5.511900000000000000e+04
-5.978900000000000000e+04
-6.099200000000000000e+04
-5.789600000000000000e+04
-5.379700000000000000e+04
-5.514400000000000000e+04
-5.987100000000000000e+04
-6.121500000000000000e+04
-5.820200000000000000e+04
-5.405400000000000000e+04
-5.523400000000000000e+04
-5.987800000000000000e+04
-6.120600000000000000e+04
-5.817700000000000000e+04
-5.395100000000000000e+04
-5.505600000000000000e+04
-5.981100000000000000e+04
-6.129700000000000000e+04
-5.841800000000000000e+04
-5.424200000000000000e+04
-5.524000000000000000e+04
-6.000100000000000000e+04
-6.150000000000000000e+04
-5.859200000000000000e+04
-5.427200000000000000e+04
-5.516600000000000000e+04
-5.999000000000000000e+04
-6.164000000000000000e+04
-5.879200000000000000e+04
-5.449200000000000000e+04
-5.527600000000000000e+04
-6.007900000000000000e+04
-6.176200000000000000e+04
-5.895000000000000000e+04
-5.459900000000000000e+04
-5.523700000000000000e+04
-6.003100000000000000e+04
-6.174700000000000000e+04
-5.902100000000000000e+04
-5.470400000000000000e+04
-5.522800000000000000e+04
-6.002200000000000000e+04
-6.191900000000000000e+04
-5.927400000000000000e+04
-5.483300000000000000e+04
-5.523500000000000000e+04
-6.009700000000000000e+04
-6.208100000000000000e+04
-5.948700000000000000e+04
-5.512700000000000000e+04
-5.537600000000000000e+04
-6.022200000000000000e+04
-6.219900000000000000e+04
-5.960100000000000000e+04
-5.516900000000000000e+04
-5.531900000000000000e+04
-6.016700000000000000e+04
-6.222400000000000000e+04
-5.969400000000000000e+04
-5.523000000000000000e+04
-5.527400000000000000e+04
-6.014300000000000000e+04
-6.236900000000000000e+04
-5.985600000000000000e+04
-5.544800000000000000e+04
-5.542700000000000000e+04
-6.026500000000000000e+04
-6.248900000000000000e+04
-6.008900000000000000e+04
-5.567700000000000000e+04
-5.549100000000000000e+04
-6.029600000000000000e+04
-6.258500000000000000e+04
-6.024900000000000000e+04
-5.571300000000000000e+04
-5.539500000000000000e+04
-6.022700000000000000e+04
-6.263100000000000000e+04
-6.035400000000000000e+04
-5.586700000000000000e+04
-5.547800000000000000e+04
-6.026200000000000000e+04
-6.272600000000000000e+04
-6.053500000000000000e+04
-5.607200000000000000e+04
-5.546700000000000000e+04
-6.018400000000000000e+04
-6.272800000000000000e+04
-6.060200000000000000e+04
-5.616800000000000000e+04
-5.565100000000000000e+04
-6.052100000000000000e+04
-6.318900000000000000e+04
-6.112600000000000000e+04
-5.669900000000000000e+04
-5.595200000000000000e+04
-6.052200000000000000e+04
-6.303400000000000000e+04
-6.079300000000000000e+04
-5.613600000000000000e+04
-5.527800000000000000e+04
-6.012100000000000000e+04
-6.303900000000000000e+04
-6.120500000000000000e+04
-5.681900000000000000e+04
-5.580400000000000000e+04
-6.045900000000000000e+04
-6.334100000000000000e+04
-6.145900000000000000e+04
-5.696600000000000000e+04
-5.584600000000000000e+04
-6.046200000000000000e+04
-6.332300000000000000e+04
-6.150000000000000000e+04
-5.698900000000000000e+04
-5.573100000000000000e+04
-6.029400000000000000e+04
-6.328600000000000000e+04
-6.154700000000000000e+04
-5.701900000000000000e+04
-5.566100000000000000e+04
-6.019100000000000000e+04
-6.325500000000000000e+04
-6.159600000000000000e+04
-5.711400000000000000e+04
-5.567000000000000000e+04
-6.020700000000000000e+04
-6.335300000000000000e+04
-6.176700000000000000e+04
-5.729900000000000000e+04
-5.576000000000000000e+04
-6.023100000000000000e+04
-6.343500000000000000e+04
-6.191600000000000000e+04
-5.748200000000000000e+04
-5.582000000000000000e+04
-6.023600000000000000e+04
-6.350800000000000000e+04
-6.217200000000000000e+04
-5.779400000000000000e+04
-5.597800000000000000e+04
-6.032200000000000000e+04
-6.361400000000000000e+04
-6.224200000000000000e+04
-5.777700000000000000e+04
-5.582800000000000000e+04
-6.018700000000000000e+04
-6.356200000000000000e+04
-6.231100000000000000e+04
-5.795100000000000000e+04
-5.594400000000000000e+04
-6.021900000000000000e+04
-6.370000000000000000e+04
-6.251400000000000000e+04
-5.817400000000000000e+04
-5.605700000000000000e+04
-6.028400000000000000e+04
-6.383600000000000000e+04
-6.269400000000000000e+04
-5.836400000000000000e+04
-5.612700000000000000e+04
-6.024400000000000000e+04
-6.378400000000000000e+04
-6.267400000000000000e+04
-5.836600000000000000e+04
-5.609700000000000000e+04
-6.020800000000000000e+04
-6.379400000000000000e+04
-6.274300000000000000e+04
-5.839100000000000000e+04
-5.593700000000000000e+04
-5.999400000000000000e+04
-6.367700000000000000e+04
-6.276200000000000000e+04
-5.852800000000000000e+04
-5.597200000000000000e+04
-5.987300000000000000e+04
-6.358000000000000000e+04
-6.271500000000000000e+04
-5.852400000000000000e+04
-5.598800000000000000e+04
-5.988900000000000000e+04
-6.364800000000000000e+04
-6.285800000000000000e+04
-5.866300000000000000e+04
-5.603600000000000000e+04
-5.987300000000000000e+04
-6.379800000000000000e+04
-6.315600000000000000e+04
-5.895700000000000000e+04
-5.615500000000000000e+04
-5.986700000000000000e+04
-6.374400000000000000e+04
-6.314100000000000000e+04
-5.903400000000000000e+04
-5.625600000000000000e+04
-6.000400000000000000e+04
-6.407400000000000000e+04
-6.358700000000000000e+04
-5.948000000000000000e+04
-5.650400000000000000e+04
-6.008100000000000000e+04
-6.411700000000000000e+04
-6.370600000000000000e+04
-5.962600000000000000e+04
-5.663800000000000000e+04
-6.010200000000000000e+04
-6.412600000000000000e+04
-6.377500000000000000e+04
-5.973700000000000000e+04
-5.664200000000000000e+04
-5.996900000000000000e+04
-6.405900000000000000e+04
-6.379200000000000000e+04
-5.978300000000000000e+04
-5.658500000000000000e+04
-5.995800000000000000e+04
-6.424800000000000000e+04
-6.406900000000000000e+04
-6.003800000000000000e+04
-5.670700000000000000e+04
-5.992400000000000000e+04
-6.411700000000000000e+04
-6.394400000000000000e+04
-6.003400000000000000e+04
-5.673700000000000000e+04
-5.985700000000000000e+04
-6.417100000000000000e+04
-6.410700000000000000e+04
-6.012900000000000000e+04
-5.673600000000000000e+04
-5.979100000000000000e+04
-6.414900000000000000e+04
-6.420400000000000000e+04
-6.028200000000000000e+04
-5.679200000000000000e+04
-5.979200000000000000e+04
-6.421500000000000000e+04
-6.433200000000000000e+04
-6.051400000000000000e+04
-5.698900000000000000e+04
-5.988700000000000000e+04
-6.430500000000000000e+04
-6.445200000000000000e+04
-6.064300000000000000e+04
-5.704300000000000000e+04
-5.982600000000000000e+04
-6.435500000000000000e+04
-6.471600000000000000e+04
-6.100400000000000000e+04
-5.743300000000000000e+04
-6.015100000000000000e+04
-6.464200000000000000e+04
-6.491500000000000000e+04
-6.098400000000000000e+04
-5.692700000000000000e+04
-5.922400000000000000e+04
-6.370800000000000000e+04
-6.428900000000000000e+04
-6.074700000000000000e+04
-5.703900000000000000e+04
-5.957700000000000000e+04
-6.419700000000000000e+04
-6.480400000000000000e+04
-6.118700000000000000e+04
-5.737500000000000000e+04
-5.978900000000000000e+04
-6.438200000000000000e+04
-6.491500000000000000e+04
-6.130100000000000000e+04
-5.742800000000000000e+04
-5.971900000000000000e+04
-6.433600000000000000e+04
-6.498300000000000000e+04
-6.139900000000000000e+04
-5.746900000000000000e+04
-5.964700000000000000e+04
-6.433700000000000000e+04
-6.509100000000000000e+04
-6.165400000000000000e+04
-5.764400000000000000e+04
-5.968100000000000000e+04
-6.444100000000000000e+04
-6.530500000000000000e+04
-6.177900000000000000e+04
-5.772500000000000000e+04
-5.963600000000000000e+04
-6.431700000000000000e+04
-6.517900000000000000e+04
-6.178900000000000000e+04
-5.766200000000000000e+04
-5.950700000000000000e+04
-6.423400000000000000e+04
-6.523300000000000000e+04
-6.188900000000000000e+04
-5.771600000000000000e+04
-5.947600000000000000e+04
-6.429600000000000000e+04
-6.533600000000000000e+04
-6.202600000000000000e+04
-5.784800000000000000e+04
-5.946200000000000000e+04
-6.429600000000000000e+04
-6.544700000000000000e+04
-6.218600000000000000e+04
-5.791900000000000000e+04
-5.941100000000000000e+04
-6.422900000000000000e+04
-6.538800000000000000e+04
-6.215400000000000000e+04
-5.790000000000000000e+04
-5.933900000000000000e+04
-6.424100000000000000e+04
-6.555200000000000000e+04
-6.244400000000000000e+04
-5.817400000000000000e+04
-5.952400000000000000e+04
-6.439700000000000000e+04
-6.572900000000000000e+04
-6.260200000000000000e+04
-5.829200000000000000e+04
-5.948000000000000000e+04
-6.434200000000000000e+04
-6.573400000000000000e+04
-6.267400000000000000e+04
-5.831100000000000000e+04
-5.931200000000000000e+04
-6.420400000000000000e+04
-6.575400000000000000e+04
-6.275300000000000000e+04
-5.835400000000000000e+04
-5.926800000000000000e+04
-6.414000000000000000e+04
-6.581400000000000000e+04
-6.294300000000000000e+04
-5.861800000000000000e+04
-5.951900000000000000e+04
-6.442700000000000000e+04
-6.615700000000000000e+04
-6.333700000000000000e+04
-5.896400000000000000e+04
-5.966400000000000000e+04
-6.450700000000000000e+04
-6.621600000000000000e+04
-6.333900000000000000e+04
-5.888000000000000000e+04
-5.942800000000000000e+04
-6.430300000000000000e+04
-6.619200000000000000e+04
-6.341100000000000000e+04
-5.894900000000000000e+04
-5.944200000000000000e+04
-6.431300000000000000e+04
-6.619600000000000000e+04
-6.354400000000000000e+04
-5.907200000000000000e+04
-5.932600000000000000e+04
-6.419400000000000000e+04
-6.616500000000000000e+04
-6.352900000000000000e+04
-5.907800000000000000e+04
-5.930600000000000000e+04
-6.423100000000000000e+04
-6.634700000000000000e+04
-6.369400000000000000e+04
-5.912800000000000000e+04
-5.924100000000000000e+04
-6.415900000000000000e+04
-6.635100000000000000e+04
-6.380600000000000000e+04
-5.926600000000000000e+04
-5.921600000000000000e+04
-6.412100000000000000e+04
-6.639500000000000000e+04
-6.391700000000000000e+04
-5.937900000000000000e+04
-5.924700000000000000e+04
-6.410900000000000000e+04
-6.641300000000000000e+04
-6.399600000000000000e+04
-5.945100000000000000e+04
-5.921400000000000000e+04
-6.413400000000000000e+04
-6.651600000000000000e+04
-6.407600000000000000e+04
-5.945100000000000000e+04
-5.907300000000000000e+04
-6.394700000000000000e+04
-6.642100000000000000e+04
-6.412500000000000000e+04
-5.953400000000000000e+04
-5.904900000000000000e+04
-6.392300000000000000e+04
-6.641800000000000000e+04
-6.415100000000000000e+04
-5.959200000000000000e+04
-5.896800000000000000e+04
-6.378100000000000000e+04
-6.641100000000000000e+04
-6.425800000000000000e+04
-5.963900000000000000e+04
-5.888900000000000000e+04
-6.368900000000000000e+04
-6.637600000000000000e+04
-6.421900000000000000e+04
-5.966300000000000000e+04
-5.897900000000000000e+04
-6.385600000000000000e+04
-6.667700000000000000e+04
-6.478400000000000000e+04
-6.029900000000000000e+04
-5.936900000000000000e+04
-6.400300000000000000e+04
-6.655700000000000000e+04
-6.427400000000000000e+04
-5.949600000000000000e+04
-5.844000000000000000e+04
-6.327400000000000000e+04
-6.625300000000000000e+04
-6.444500000000000000e+04
-5.986900000000000000e+04
-5.872200000000000000e+04
-6.339700000000000000e+04
-6.631400000000000000e+04
-6.445200000000000000e+04
-5.992500000000000000e+04
-5.859900000000000000e+04
-6.314700000000000000e+04
-6.617900000000000000e+04
-6.436800000000000000e+04
-5.969200000000000000e+04
-5.789400000000000000e+04
-6.121900000000000000e+04
-6.291900000000000000e+04
-5.984900000000000000e+04
-5.431600000000000000e+04
-5.242300000000000000e+04
-5.803900000000000000e+04
-6.126500000000000000e+04
-6.104200000000000000e+04
-5.790900000000000000e+04
-5.727600000000000000e+04
-6.400500000000000000e+04
-6.674400000000000000e+04
-6.493700000000000000e+04
-5.977300000000000000e+04
-5.707100000000000000e+04
-6.075600000000000000e+04
-6.373400000000000000e+04
-6.116800000000000000e+04
-5.681200000000000000e+04
-5.610900000000000000e+04
-5.970500000000000000e+04
-6.286400000000000000e+04
-6.293000000000000000e+04
-5.646700000000000000e+04
-5.455400000000000000e+04
-5.982200000000000000e+04
-6.465200000000000000e+04
-6.205400000000000000e+04
-5.800700000000000000e+04
-5.496300000000000000e+04
-5.912200000000000000e+04
-6.402700000000000000e+04
-6.282700000000000000e+04
-5.895400000000000000e+04
-5.680600000000000000e+04
-6.009600000000000000e+04
-6.322900000000000000e+04
-6.182000000000000000e+04
-5.614700000000000000e+04
-5.414700000000000000e+04
-5.683400000000000000e+04
-5.838200000000000000e+04
-5.570800000000000000e+04
-5.076400000000000000e+04
-4.880400000000000000e+04
-5.155600000000000000e+04
-5.361300000000000000e+04
-5.161800000000000000e+04
-4.600500000000000000e+04
-4.421600000000000000e+04
