-4.170133497293577966e+04
-6.976670435205021931e+04
-4.611900032913195901e+04
-4.759668672961852280e+04
-3.931291892646543420e+04
7.216885998687567735e+03
2.684229477762295573e+04
9.494485198243561172e+03
5.687017042907958967e+03
1.423042062229745170e+04
1.778914456807970419e+04
2.077145310645794234e+04
1.527662569305554644e+04
3.421439506449812143e+03
9.296901295286091909e+02
-1.705781794772068679e+03
-9.875842586037309957e+03
-8.130466397053313813e+03
-2.897166345649469349e+03
-7.637377373406821789e+03
-1.191581935168314885e+04
-9.676780316785647301e+03
-5.606153966984870749e+03
9.003671817887931184e+02
3.997590404045896776e+03
2.018102816750517263e+02
7.463313204394534068e+02
5.816535896275440791e+03
5.750614482045567456e+03
5.070620607383119932e+03
7.061354059374667486e+03
5.162518637525183294e+03
1.205728636116933785e+03
-7.371111406139984865e+02
-2.223151659371713777e+03
-1.328365601322055682e+03
2.573140001582057153e+02
-3.257961212263367997e+03
-6.646623853391104603e+03
-4.423211550719895058e+03
-2.289099986474069738e+03
-2.033898971709693114e+03
-5.769070975753348876e+02
2.202729198879052319e+02
3.244102162982452455e+02
1.516604847094027946e+03
1.784551380091582132e+03
2.107237735217833688e+03
4.052072909395218176e+03
3.483004033582307784e+03
4.938746442871412228e+02
-6.976613469202858298e+00
8.644624808944852248e+02
5.394379001674277561e+02
-6.929332885683464838e+01
-1.372291062208283847e+03
-2.673477606256322815e+03
-1.959617706375963735e+03
-1.347917422179698633e+03
-1.852073742336397572e+03
-9.063440839106186786e+02
2.251855777891200319e+02
-4.963043444449265280e+02
-6.578425895370273793e+02
5.670156244287360323e+02
1.443383643557714549e+03
1.841520416416509988e+03
1.430843199431860285e+03
3.172238615036392275e+02
3.797430946365553268e+02
1.031504559767783803e+03
5.341632451422190115e+02
-1.321030501366275089e+01
-1.328295935047261196e+02
-7.257669835361742798e+02
-9.986131235885638944e+02
-7.284219639143370841e+02
-6.956513230417826890e+02
-2.977575749610877551e+02
3.611715590499079553e+01
-7.766576998951564974e+02
-1.048562730555241387e+03
1.022230597235150213e+02
6.813010694264046379e+02
4.423388437895828815e+02
5.105950672467176332e+02
4.626342608314187146e+02
2.858872429254484473e+02
4.433820647587709800e+02
3.420260292536765974e+02
1.151654248406846222e+02
2.424051173257309415e+02
-5.284856080176152204e+01
-6.348272408607189163e+02
-4.181643795766515836e+02
5.889740419391091564e+01
-2.569108911882614166e+01
-2.472316634459746467e+02
-3.597201650775979260e+02
-3.450677540941583175e+02
-5.654243407292068468e+01
9.277318742377993033e+01
3.036900283998047456e-01
1.446037065340298682e+02
2.450776185016251532e+02
7.787757758395398966e+00
1.544712716952659903e+01
2.963349718965019974e+02
2.718984335352745916e+02
4.116026599096943528e+01
-9.921094461165847633e+01
-1.760235051512572682e+02
-1.185445717938553969e+02
1.858769338242146318e+01
2.999486516704410377e+01
-1.803571818051449327e+01
-7.047796540030098811e+01
-1.585766355171353723e+02
-1.219882085203637700e+02
1.540265638620642008e+01
3.336762917856447075e+01
1.607853701529708701e+01
5.062130320017592311e+01
-3.729904049745945471e+00
-5.357204248945554781e+01
4.840311670656419807e+01
1.040451506794572367e+02
7.207183530481415801e+00
-6.852294537909627081e+01
-9.318221838939740564e+01
-9.513775479051840023e+01
-2.443698563369504839e+01
7.310373130145090670e+01
7.689522011415661495e+01
3.107380005916154175e+01
2.328998967891749672e+01
1.833971488500709413e+01
-3.019090426479538181e+01
-1.006739778841789814e+02
-1.153472117062440248e+02
-4.635917808823189290e+01
-7.346437959329570333e-01
-2.686878894856452149e+00
6.267533407083555375e+01
1.244552992558954969e+02
1.426469113501392272e+01
-1.551053549424513847e+02
-1.579497554762692744e+02
-7.894253864514645613e+00
1.008031896874604172e+02
5.509980051700328829e+01
-5.206231997544691836e+01
-1.203846706342183666e+02
-1.817085239251229041e+02
-1.651328856333139754e+02
1.475556274272663515e+01
1.720760102449525561e+02
1.846154326816979676e+02
1.303528150012499225e+02
-2.741980944184774316e+01
-1.576044620352340928e+02
1.265130562671234671e+01
1.978255363392753736e+02
3.715409480792489205e+01
-1.563650744591358261e+02
-1.250837407233200906e+02
-5.170689681803134619e+01
-3.438904892439761340e+01
-8.417183759376115404e+01
-8.691275916289677639e+01
7.508076941482407562e+01
6.354942509400366646e+00
-3.240951817137126909e+02
-1.648524906383336202e+02
2.168480656290984143e+02
-9.980192164280779821e+01
-5.251570169249383753e+02
-2.571667060061431584e+02
1.780233086595853251e+02
4.744477245500096956e+02
7.425465308919547169e+02
6.983881717390652284e+02
4.983196676541224406e+02
3.056308144885787215e+02
-2.328409748532177730e+02
-6.032838707635604578e+02
-3.565794489671201859e+02
-4.196782304805991544e+02
-8.876471580122725982e+02
-8.814785458696351270e+02
-6.261798049480858026e+02
-3.055653242414369402e+02
2.726398272690877320e+02
3.450913764887678781e+02
3.867582850174724030e+01
4.217535308281453013e+02
8.157540783270154634e+02
6.164351777032685504e+02
7.204007319235141722e+02
8.456231760093501180e+02
4.327000910375580816e+02
1.720381270581006561e+02
-1.310262320957954216e+02
-5.197504573531144842e+02
-9.872683130973371135e+01
-1.186499475307694524e+02
-1.451668087807119264e+03
-1.738703666939517234e+03
-7.192196139544329299e+02
-5.808302945992298874e+02
-7.652835091197580368e+02
-3.935233820778031486e+02
-1.964353442763933515e+02
3.822111019564851517e+02
1.177667743573379312e+03
1.139105445608043055e+03
1.640603437573719020e+03
2.465103392713104768e+03
1.190277545211944243e+03
-2.926176613816073768e+02
3.970523108273129083e+02
9.837667448556286445e+02
3.627074621749325161e+02
-6.836733113875687877e+02
-2.386848756573817809e+03
-2.917608690260952244e+03
-1.717938010078916477e+03
-1.956949988319933709e+03
-2.428098641616375517e+03
-5.914398753318508852e+02
-5.264761013730107919e+01
-1.307088440325755073e+03
-2.674584728889508867e+01
2.559330220439990171e+03
4.018925491675544436e+03
4.636241345428024033e+03
2.613731520532061040e+03
5.103744657626191383e+02
2.997872470547923058e+03
4.260354998130639615e+03
5.044041225287526231e+02
-1.430501395992284870e+03
-2.074341598792115292e+03
-5.767541786489336118e+03
-7.504988763728400954e+03
-6.360625184588210686e+03
-5.203957810131954830e+03
-2.038242044049932701e+03
-3.581039930348421876e+03
-1.075659711565995349e+04
-2.736842312607286203e+03
1.729558893284746227e+04
2.054224988454132472e+04
1.659168623651779126e+04
2.390079485848776312e+04
1.438143006761515062e+04
-1.801511702679393056e+04
-2.925149853798061304e+04
-1.650759675367069212e+04
-1.375855144055836354e+04
-1.280270880588392174e+04
1.865120926660856412e+03
9.488604512965916001e+03
3.708852745912466617e+03
2.163283886413360960e+03
5.450904532853375713e+03
7.060838289790119234e+03
8.119059559281256043e+03
5.322209421378740444e+03
1.695724612008236321e+01
-3.351246307632613934e+02
1.837203002746682330e+02
-2.796240121317413468e+03
-3.269747332937623014e+03
-1.729183658639272380e+03
-3.198285702382886484e+03
-4.550098655554960715e+03
-3.547908781832983095e+03
-1.962570676230479648e+03
5.088010722919592581e+02
1.724859556909728326e+03
4.811235265488043922e+01
2.944463222485526543e+01
2.347354393124895068e+03
2.692116163992797283e+03
2.005851302906321962e+03
2.180507903365235052e+03
1.493643309788222496e+03
4.226931023038355306e+02
-2.344217583779631653e+01
-6.885392884724780060e+02
-5.987933280963749212e+02
-2.498024707297608771e+01
-1.329070994467814444e+03
-2.709757742083347239e+03
-1.770941097004706990e+03
-6.695349785932606892e+02
-5.333546971268319794e+02
-2.425294417837345691e+02
-1.458629577693559156e+02
-1.087524326400640362e+01
7.446774729364403811e+02
9.467959909850886788e+02
8.322744307313251966e+02
1.410527002938151782e+03
1.277741053724005496e+03
1.812883998208542948e+02
-6.046052323900277514e+01
2.799406762483082503e+02
1.908703163738630053e+02
-5.173636899198317707e+01
-6.281786840901519327e+02
-1.196621153658774801e+03
-7.934991716416251393e+02
-3.536670430482641336e+02
-6.194268246345425268e+02
-4.616939360110319512e+02
5.596534665325389568e+00
-1.162959616171999642e+02
-1.443725772646247663e+02
2.755100898242976086e+02
5.527423942708618370e+02
6.940427511438394959e+02
5.618173207029146852e+02
6.177323986856479365e+01
1.442629667456748166e+01
3.879929072214080179e+02
2.844029929222122064e+02
-6.295120818178372701e+01
-1.818044585038859395e+02
-3.098426048305572067e+02
-3.790460235688925650e+02
-3.216548892820804895e+02
-3.355496532681194140e+02
-1.865626198018137245e+02
2.247512231926760862e+01
-1.930087843700453902e+02
-3.525892247179964443e+02
3.633335377183574622e+01
3.337877003963929496e+02
2.158818919854535920e+02
1.395475207112790486e+02
1.944207200502774811e+02
2.022133668849807009e+02
1.550877637186564186e+02
4.868790035055891963e+01
-2.722030824299805118e+01
-3.067304678361745829e+01
-1.190739555275280566e+02
-2.428123366481364371e+02
-2.385085160433186786e+02
-1.787361930332574502e+02
-1.312715920943134904e+02
-1.099703786152491318e+02
-1.227792061686974137e+02
3.217630945437321088e+00
2.393945847593174676e+02
2.541155287885758867e+02
1.276296629469236450e+02
1.617213930660996084e+02
2.073465565097565673e+02
1.121550069420938911e+02
9.269102610659285091e+00
-1.493776404465797327e+02
-4.300528939625827434e+02
-6.264052626283370273e+02
-5.984126773577930862e+02
-3.370693573310322790e+02
1.459490032609303967e+02
6.119582361936649022e+02
7.409924850939441967e+02
5.211588885118720782e+02
1.754648001730905946e+02
-1.019652580838833558e+02
-2.444757653610592456e+02
-2.725064457498917250e+02
-1.977104211565709306e+02
-9.365805770791791929e+01
-1.208317166536931353e+02
-2.548985680379648784e+02
-2.696691020310828435e+02
-9.914798149680432005e+01
9.415477323110832231e+01
1.771480703244937729e+02
1.812909125181019760e+02
1.822222684102366372e+02
1.213758461509035271e+02
-3.896830094677773815e+01
-9.463878790176326561e+01
3.491332820051436414e+00
-1.821866186352384176e+00
-1.145327044488576149e+02
-1.054901966712629360e+02
-3.409104502619641863e+01
-3.053042153089829114e+01
-1.139467351071242973e+00
5.155890512981697782e+01
2.616656454703661083e+01
-2.596224621376647335e+01
-7.528289949816816318e+01
-1.330316342881008040e+02
-9.193724065223048569e+01
2.050726246678799569e+01
2.886048226054017718e+01
-4.433215309879503963e+00
4.941121961442227928e+01
6.749336280592271464e+01
-1.662031397610277850e+01
-6.221307339396574321e+01
-3.763672215100471163e+01
-3.257716064801937250e+01
-5.089477563954355332e+01
-4.271099158682817887e+01
2.269942820366964042e+00
3.741543495967612643e+01
1.569208268111403726e+01
-1.581965676199895299e+01
-2.785955351707830374e+00
-1.334329643564629464e+00
-4.855230465832833886e+01
-8.610258001831222430e+01
-8.115990848327427898e+01
-5.326549378013497460e+01
-3.407167961953627611e+01
-3.538360887387137410e+01
-4.827405873642632628e+00
5.325984464496096393e+01
3.239670221333938116e+01
-2.349146019427661969e+01
2.486153491593093534e+01
8.086802375643546270e+01
1.595339701752635975e+01
-4.161560874154329071e+01
-2.434499611743336800e+01
-6.189399253609619933e+01
-1.348965326119396764e+02
-1.063585836205832464e+02
-2.139391346838327479e+01
-6.437568969958153531e+00
-4.487905271678210539e+01
-3.510312547589905563e+01
2.893433334538814350e+01
4.919075839803858230e+01
2.118751641760457360e+01
4.204966461742666439e+01
6.677788488087510643e+01
-9.948007008202509382e+00
-9.245878761134170531e+01
-7.293426117211444648e+01
-3.582149140194718484e+01
-4.528845079914118088e+01
-5.548527695155753747e+01
-3.565722160181454115e+01
9.286121199824773242e+00
2.367383005411919328e+01
-1.863151433414498825e+01
-1.680691245334057982e+01
1.717843017061932187e+01
-6.551007878542188223e+01
-1.525697097164792808e+02
-5.486873506694983860e+01
6.190649033198425144e+01
6.157635791067985309e+01
8.681947591499186956e+01
1.071546194210232130e+02
-1.263082698329366593e+00
-9.509895650287062097e+01
-8.927851907944486243e+01
-9.323775395883684780e+01
-8.110576820300501311e+01
-2.269732613619305539e+01
-3.075418566496614048e+01
-7.544550522855695363e+01
-4.924214369306622530e+01
-1.604798214263791323e+00
3.298159740504273429e+01
8.235400355347078971e+01
1.044088992704692487e+02
7.710964354770129603e+01
3.679746261823165554e+00
-1.192930712106148263e+02
-1.822870668885906582e+02
-1.217753946523959030e+02
-5.843752100652875470e+01
-7.264534873831902217e+00
9.636490889603828691e+01
1.252954452058439614e+02
2.736573562031145102e+01
-5.101869094201528299e+01
-1.066711453021843852e+02
-1.548045741799590758e+02
-6.684129126775832219e+01
6.137245848352648636e+01
4.962244681683269221e+01
4.939380894211392103e+01
1.217816310397264772e+02
3.049544596541533892e+01
-1.497610131978183574e+02
-1.384417960254013451e+02
-6.719270948805433363e+01
-1.251632158026566231e+02
-1.190243905340148558e+02
3.497673862831580749e+01
1.013801445185457055e+02
2.827769748300158881e+01
-3.282993430882271468e+00
3.096860161030832614e+01
4.861670304396763242e+01
7.461955952441923046e+01
1.075177919585421478e+02
6.724304701856813438e+01
-2.534693264165104054e+01
-1.176909636755536468e+02
-2.362300838382145116e+02
-2.915914082190520276e+02
-1.614600414351667723e+02
-2.448917227493828719e+01
-5.777368642659886433e+01
-6.903862090982349287e+01
4.303095091315762488e+01
8.505123376665034129e+01
8.556191935844526597e+01
2.111894170933665009e+02
3.129447889404871148e+02
2.339219584766286744e+02
9.733882385247522961e+01
-3.804024715339238583e+00
-8.539930333006134333e+01
-1.724972636863215030e+02
-3.391063512864325844e+02
-5.149091944706240156e+02
-5.085428103772940744e+02
-3.795932665818596661e+02
-2.069461933391689570e+02
1.666658710039073696e+02
5.947788689317570743e+02
6.707950231798886307e+02
4.786867566037664119e+02
3.031241268463651295e+02
5.021550982272822239e+01
-2.565977328145136767e+02
-3.289376597921747134e+02
-2.485191447175992892e+02
-2.735492004830513793e+02
-2.924084362188830823e+02
-1.692850991434424941e+02
-4.668305638381981737e+01
-2.412771570823455392e+00
5.225534830187692137e+01
1.188820322265177936e+02
8.882878302345395127e+01
-2.836360417450926974e+01
-3.626856158188923018e+01
1.092059405673456070e+02
1.515855283770620758e+02
4.419537895555566109e+01
4.360469433720603405e+01
7.826700338675416901e+01
-8.458142211248653553e+01
-2.025675509227793043e+02
-6.685865178290433164e+01
6.339524115038095431e-01
-1.272485061056425195e+02
-1.532588729175765820e+02
-6.003659382837807357e+01
-4.611709048283883305e+01
-4.747143851408175408e+01
2.553493963629727048e+01
9.190254746063914126e+01
9.429332110408344647e+01
2.126173445175547982e+01
-5.654325403361963254e+01
-1.012331001285544119e+01
5.754644704737191319e+01
-1.193408380094370358e+01
-5.007245080675632209e+01
3.681718463507117178e+01
1.645938764362056261e+01
-1.033309639396367885e+02
-9.226197495766639634e+01
-3.680090255072767036e+01
-6.438598890513124218e+01
-4.198133323237181003e+01
2.264954443725490663e+01
4.810164860369578577e+00
-9.509938955148587780e+00
8.881603420047952113e-01
-7.814736355937900214e+01
-1.236927183305934079e+02
-1.087639873688556591e+01
7.242520127134919505e+01
4.081571587044402349e+01
5.220639891549416234e+01
8.998729006048418455e+01
1.768789617156978977e+01
-9.522524615065022147e+01
-1.138228446009738235e+02
-5.511145036228309380e+01
-1.551879421220460742e+01
-4.079110379889799987e+01
-6.155686257232845549e+01
-9.409149936416838500e-01
4.675514864404667037e+01
-2.819047665870796848e+01
-1.048898594954184489e+02
-4.807239933482792082e+01
2.069887002056730552e+01
-1.980874696642826649e+01
-2.642658617694353751e+01
9.253592039684660620e+01
1.241195508295947434e+02
-3.509088051284193455e+01
-1.300087820132431489e+02
-4.754838914552070150e+01
-1.020166845435160852e+01
-5.901972564058680604e+01
-1.979831257707973435e+01
4.121191470462218831e+01
-1.814160422166344944e+01
-8.598028436454383439e+01
-5.723359926500637584e+01
2.700190103262169572e+00
4.230534178142642077e+01
3.347919237570337714e+01
-3.366906518208479326e+01
-8.625311167741870122e+01
-8.970174864623348299e+01
-6.292426808073487621e+01
1.280851525159276960e+01
8.367953409312615065e+01
7.524970730527351748e+01
4.302190347394476078e+01
-9.146737512688819294e+00
-1.119129613773778260e+02
-1.270636834532052433e+02
-3.770982157787085498e+01
-1.343731043503690614e+01
9.028395680340132401e+00
9.890849634002807989e+01
6.042368162092284933e+01
-6.129744895412267169e+01
-7.063291722389863025e+01
-1.206241810959252660e+02
-2.115480012208798257e+02
-7.511630646983803672e+01
8.787552328058110618e+01
3.718581129309205835e+01
7.013555438925767760e+01
1.845800292248069354e+02
4.471237409554364461e+01
-1.104871501387007982e+02
-2.927842349887943385e+01
-2.089413406553254404e+01
-1.077620929732760970e+02
-4.860919072337664204e+01
-1.692104403485175013e+01
-7.029049694903829959e+01
5.225948477500281797e+00
4.216184061771332381e+01
-7.833638560898977232e+01
-6.743643926796090682e+01
1.981446211320524142e+01
-6.274690805720986475e+01
-8.602340297665055857e+01
6.219492632270680588e+01
7.811739537147192891e+01
-3.072829028898954107e+01
-3.272848372951622054e+01
1.897625056561338397e-01
-1.892830112135307274e+01
-5.784240179616684685e+00
3.255186999308705253e+01
3.958247701232492943e+01
1.468927476474032900e+01
-3.522266230919969132e+01
-6.183758902554848191e+01
-5.070340650342453870e+01
-5.958671126463806189e+01
-6.061234016159110638e+01
-3.610061572158058141e+01
-7.685770922149566786e+01
-1.326435311577385789e+02
-8.603334863629686424e+01
-3.814314042575369967e+01
-5.817335366502337024e+01
-6.757798027773681326e+00
1.242140170850980354e+02
1.843558848129702028e+02
1.704878292141422662e+02
1.746507743596696116e+02
1.844624325451688662e+02
1.187005005356265883e+02
-3.827360423682466717e+01
-1.997863478119727461e+02
-3.258137195911147046e+02
-4.698245607571467417e+02
-5.520910269285197955e+02
-4.089353725074269050e+02
-9.541690895344993351e+01
2.321370551271498357e+02
5.054384878430335561e+02
6.047702923725305482e+02
4.626655465613656588e+02
2.270392192112881276e+02
-1.302064790720358900e+01
-2.517190723700966828e+02
-3.270751178380032229e+02
-2.146798223748708097e+02
-1.655243208839477234e+02
-2.031702976176747768e+02
-1.426496109524912299e+02
-5.351975587857470629e+01
-5.062135850052551689e+01
-2.163421409204492463e+01
6.137771872755509150e+01
8.495654789905590576e+01
6.253467732923714095e+01
5.816130083365657555e+01
6.189881509900484957e+01
6.648418609235564247e+01
4.967752111704909623e+01
-4.684158440308426208e+00
-3.592887372222905640e+01
-3.534317095045629742e+01
-6.013861107108358794e+01
-6.810180232920876620e+01
-3.266753813975931564e+01
-5.078443548777514138e+01
-1.055380913178593829e+02
-8.753328970642859019e+01
-6.418427967115346178e+01
-9.681539455449744480e+01
-5.642462121759739091e+01
5.318864461712833958e+01
7.122563293814464203e+01
5.441215376440466400e+01
1.143227887759655772e+02
1.134111138861801606e+02
-3.495571775526460812e+00
-6.478991988047006600e+01
-6.709422252389842356e+01
-1.128136462558282318e+02
-1.088636268100093929e+02
-3.005171052035969836e+01
-2.051538423255945887e+01
-3.855651144653428730e+01
1.474076988031366042e+01
2.626556980853791501e+01
-1.749082521225846776e+01
8.032093872386603550e+00
1.072287838044842090e+01
-7.940787260407287818e+01
-8.277291568240281094e+01
-4.541733867980610739e-01
-6.554235816484741406e+00
-1.872941356490217402e+01
4.748818150301972452e+01
3.378457802024617251e+01
-4.786266373751142567e+01
-2.365381720311151170e+01
3.279597014154451529e+01
-3.631877754471599218e+00
-5.519684069793389369e+01
-7.528338211913477096e+01
-9.526877957841999489e+01
-8.315725414424709072e+01
-2.872527482189660475e+01
4.118096698166607439e+01
1.078928593524223345e+02
8.362041697884829716e+01
-4.612840297518583554e+01
-1.031966107626759452e+02
-3.995399003717560760e+01
-1.873254135054214942e+01
-4.187955322615370335e+01
-2.038771873884506647e+00
2.081501480877312460e+01
-4.852994498247385735e+01
-8.855464361522597017e+01
-2.903093372091935365e+01
3.392271687770899291e+01
3.069636746040555408e+01
-4.068903964592067268e+00
-1.943521640368836501e+01
-1.800139234615260975e+01
-3.164156072644849615e+01
-4.206444213194727411e+01
-1.818652640681343868e+01
-1.631646468879417000e+00
-2.026593198423023168e+01
-2.402522035457378280e+01
-1.735841192897968455e+00
1.792969796814748662e+00
-1.314344100481078925e+01
-3.358170635509688395e+01
-7.300480739687810683e+01
-9.702970850653269963e+01
-5.200577059933753077e+01
2.711425663701538014e+01
6.048345475966961260e+01
4.379224837276176885e+01
3.405666766606650242e+01
2.568734965896577194e+01
-4.115280230386847649e+01
-1.144771051074059756e+02
-7.939372652471483605e+01
-2.476846542110084926e+00
-1.525966454081099144e+01
-3.025741082506798918e+01
3.891128247181181621e+01
3.812571173780499123e+01
-7.748373859235962868e+01
-1.091477483420019894e+02
-3.778833562890557118e+01
-1.955955701655488355e+01
-1.284775091096980404e+01
5.543720247144661073e+01
6.142015473584145724e+01
-1.620190857876242418e+01
-3.706601735954119192e+01
-2.094240469645627911e+01
-4.369074902967388141e+01
-2.230378695860125049e+01
4.258730964943801212e+01
1.566126536434119032e+01
-5.930365196848861586e+01
-4.987634166040830053e+01
-2.169379384326483517e+01
-5.984902806889968474e+01
-8.520525894384556409e+01
-5.818275390704937422e+01
-4.077176663904388221e+01
-3.175175063332535430e+01
3.130714494109440693e+00
3.842858810093688504e+01
4.853254642751515036e+01
3.376232017925207884e+01
3.865639638089344743e+00
3.890157515342657746e+00
4.630309736392254649e+01
5.451262454189686935e+01
5.309092540694635431e+00
-2.846403817465352759e+01
-5.019389552255262288e+01
-1.096975575978163420e+02
-1.447090469721259467e+02
-1.186600101393419777e+02
-1.298669633252807216e+02
-1.729683270611685941e+02
-1.191294959045108754e+02
-8.772795663593669246e+00
5.003906363682703784e+01
1.365084877278277418e+02
2.696914684020624122e+02
2.761075483744227199e+02
1.718510463952143539e+02
1.480445626003504174e+02
1.414623491370808779e+02
-1.990336375418348780e+01
-2.570294788381618218e+02
-4.413297064571327724e+02
-5.658347481220422424e+02
-5.632501070896770443e+02
-3.530636389807747832e+02
4.834393201862926759e+00
3.791652382090894662e+02
5.950783362418624165e+02
5.314107857676062849e+02
3.262092306527290475e+02
1.528240322559297510e+02
-4.959876400227457793e+01
-2.578932011133815081e+02
-2.827167525476354513e+02
-2.001564471904518996e+02
-2.062672863524146010e+02
-2.022283651153485664e+02
-9.521368181153385990e+01
-2.329927127936148779e+01
-6.321596568714252129e+00
4.070978852914197432e+01
6.243650155460493067e+01
5.219689884764629539e+01
8.568024889511789866e+01
9.150232255328171505e+01
2.190169712484241060e+01
-1.544578165857744168e+01
-1.443658897855538825e+01
-4.244836933016269143e+01
-5.477939688869383872e+01
-4.541548567431250660e+01
-6.794420648098621029e+01
-7.863282140485392802e+01
-5.730400013327556508e+01
-3.598895203709629698e+01
4.192118356140684909e+01
1.392780634860868645e+02
8.736826235451967193e+01
-6.256543607729162915e+01
-1.351306267096625788e+02
-1.599478144279573826e+02
-1.687464597335331860e+02
-7.639767475933977892e+01
6.012155632657722748e+01
1.263918374794551767e+02
1.252750908229145494e+02
4.663504502029562104e+01
-5.271370315939826412e+01
-2.652960813814225816e+01
2.305549478380234163e+01
-5.961943261168224240e+01
-8.410822180656518299e+01
2.426674314130279342e+01
7.770398343157332022e-01
-1.060119809800062143e+02
-3.607881345277498752e+01
3.570513682444692449e+01
-6.895831991303803932e+01
-1.076166743698661179e+02
-2.332939993128400147e+01
-1.942925672277324267e+01
-2.224755788111990995e+01
5.833089915331434838e+01
5.572669633880481399e+01
-1.010025718628969571e+01
1.537577584778179585e+01
1.892689424858394531e+01
-6.112272428318641460e+01
-4.492937255248014594e+01
3.513371921954042421e+01
-6.226148257147311682e+00
-7.580233364773701510e+01
-3.838926629440989302e+01
-1.954503599812619896e+01
-9.175884544233541362e+01
-1.110920749390444513e+02
-3.292277840006008205e+01
1.629139476082252713e+01
1.896421179876915275e+01
7.245407503282538642e+01
1.239647748449255857e+02
4.082531710546379600e+01
-8.750477069609571856e+01
-9.951804569003211043e+01
-7.797870220677182829e+01
-1.078003417549107752e+02
-5.235272935769305036e+01
7.868855713731485935e+01
7.163838339051612536e+01
-2.719487546972933600e+01
-2.187025927717454010e+01
4.884381454841552284e+00
-4.976485011657354107e+01
-5.379720215781637194e+01
7.463144231118729266e+00
-3.618155629254932393e+00
-5.426225381113239621e+01
-6.778024312298589393e+01
-6.781571545693373082e+01
-1.648397273112145101e+01
6.332733832846230371e+01
3.123524356791635981e+01
-2.656971778025506481e+01
3.299198392546315972e+01
2.387569399857193986e+01
-1.064232357084411547e+02
-6.737757593843299730e+01
7.161940066523965243e+01
-7.895681431615869883e+00
-1.197667596145938376e+02
-1.935473659831641413e+01
3.257732701882307680e+01
-6.433774834564789558e+01
-4.042383536626574170e+01
5.780458242001949287e+01
7.985504789280977178e+00
-7.858281679587858548e+01
-7.211022156623403134e+01
-4.935837862206869886e+01
-2.845988621082187464e+01
9.733644031652570305e+00
3.314675492183536676e+01
5.401612346632985862e+01
5.301295033414974966e+01
-2.895089573083847512e+00
-2.843441033767673787e+01
-9.997589698424299343e+00
-4.758920494217758801e+01
-8.684285716173594949e+01
-5.525065721317540124e+01
-5.385448415487476836e+01
-8.817527944357173908e+01
-5.596043079156208933e+01
-8.725920166398658750e+00
-1.412246694207592412e+00
3.046696233331669745e+01
6.934234551318262163e+01
6.038869574961293551e+01
3.764325844874197458e+01
2.319145270478532694e+00
-6.023722722804938456e+01
-1.005802697853578564e+02
-1.123918892102921063e+02
-1.084709470501185962e+02
-5.011697611061965318e+01
3.749358172862686445e+01
8.874762917724962108e+01
1.085738976381692140e+02
9.263500865669547579e+01
2.604916356847344616e+01
-4.240078714514883984e+01
-9.606174306015293496e+01
-1.470505797260830718e+02
-1.464169336950921547e+02
-1.008636083207917835e+02
-8.452382666933934274e+01
-7.830289060792527778e+01
-3.835536533268503945e+01
5.560604124387236169e+00
4.249831553290093211e+01
8.497436523367497330e+01
1.318492772026940258e+02
1.985710609357171847e+02
2.528357480505634953e+02
2.203425220788191723e+02
1.052090243005647210e+02
-7.515698468454729664e+01
-3.378785578275762873e+02
-5.904601203577068418e+02
-6.630472184577413373e+02
-4.781395133202774446e+02
-1.000298054711464459e+02
2.808658931210570131e+02
5.124260193939082910e+02
5.980836693573201046e+02
4.893368498442191026e+02
1.441213148017987464e+02
-1.591724008969051170e+02
-1.899044882148003524e+02
-1.605282157879700264e+02
-2.054131464694606848e+02
-1.627179877467013398e+02
-8.612677585284630766e+01
-1.344283790658343207e+02
-1.820168191808544691e+02
-1.163344886175292743e+02
-1.367133073077716432e+01
7.910622543776170801e+01
1.162432845214927681e+02
8.672595175082378205e+01
9.322224352625876520e+01
8.908701250845290076e+01
-2.575780540110591588e+01
-7.193680749835471033e+01
2.636513063956197911e+01
3.043875655835256211e+01
-5.411251924637824828e+01
-3.174742278823043407e+01
-2.424493047073837815e+01
-1.357364665165392239e+02
-1.583950207276911897e+02
-5.151046633194310687e+01
7.542278576630963016e-01
9.247285746566817011e+00
6.232211180462114442e+01
7.485473505553544271e+01
-7.757497200336707976e+00
-7.411168390273751072e+01
-4.724748685812598126e+01
-5.457116694532935242e+00
-2.054576148936967783e+01
-3.134379322926179512e+01
-1.410466531680295788e+00
-3.818420279168947218e+00
-3.525005376929459544e+01
-1.732818888093515142e+01
2.002176777549986397e+01
1.943583739422457413e+01
2.406566374492090432e+00
-2.342798859896514330e+01
-4.818198180091873439e+01
-4.545262082979612472e+01
-6.080521530771198258e+01
-9.097623868194069985e+01
-4.200989002290629060e+01
3.651506623275786012e+01
3.749317665530651311e+01
2.814046296343464704e+01
4.009587212216187879e+01
-1.947914107268283601e+01
-9.628146320627041632e+01
-8.367116976203018908e+01
-4.573676472037266905e+01
-2.029665175821510559e+01
3.715458826968300343e+01
5.980066578619416617e+01
-2.101996077086205617e+00
-5.333015055322761100e+01
-5.141292534126383629e+01
-4.104709198667185888e+01
-2.089211695218806142e+01
7.556815020329775479e+00
1.474197839689537659e+01
4.216272612299324152e+00
-2.875716573432626078e+01
-7.216269040190900341e+01
-5.356112321262464349e+01
8.813108323849867531e+00
1.259162596804535639e+01
-9.070033808130656183e+00
1.870412030871703379e+01
1.783382269800658904e+01
-5.563057637825945534e+01
-9.246903374861489056e+01
-5.309397099527983244e+01
-1.442153342741787725e+01
-1.210633382823359128e+01
-2.757253858422291515e+01
-2.369961650206749226e+01
8.231636239790912413e+00
1.120545457491463281e+00
-4.096376611986097771e+01
-1.438910029300221183e+01
3.569428841289531107e+01
1.118629861332113506e+00
-2.575501754086985073e+01
2.771766409443254986e+01
5.915333345378604690e+01
4.641784267957695675e+01
1.597308151962065992e+01
-7.268335426088390250e+01
-1.427244981641205186e+02
-1.278492811534014493e+02
-1.353650279372263867e+02
-1.282655024950121287e+02
7.485585012536368765e-01
7.084333574518872467e+01
-2.396080422210039274e+01
-7.387507138482777691e+01
-1.177569661989213756e+01
5.094832476361487750e+01
1.023060071288589086e+02
1.294733455185124456e+02
1.300449107493353722e+02
1.251294124539096657e+02
1.545216571975800690e+01
-1.363411158112925818e+02
-1.041069914758481474e+02
-2.632018762630060849e+01
-9.483495033858102374e+01
-1.224497803733976014e+02
-1.010524355963479621e+02
-1.835060156838881085e+02
-1.838198499188746666e+02
-8.056244448065402253e+01
-8.682385744555591600e+01
-3.144594046889467265e+01
1.260530290073414221e+02
7.035026371853491867e+01
-1.433388985195256637e+01
1.499214543048197470e+02
2.624069162098825814e+02
2.290798551609244385e+02
2.347088319274521382e+02
1.464370897965387712e+02
-1.066601244296512974e+01
-8.416121898978151705e+01
-2.478069920625837312e+02
-3.674829089294778441e+02
-2.087238990102074467e+02
-1.767917628181013470e+02
-3.493661978421765184e+02
-2.865224453672403229e+02
-1.686642394964865730e+02
-1.693301251357447939e+02
3.857789238832452838e+00
1.148636920665430097e+02
6.135170643630777931e+01
3.255737621931165222e+02
5.700043984873246927e+02
3.846309284661202810e+02
4.189056344116875152e+02
6.439710188642624189e+02
3.782369575346611441e+02
-1.727926299822824774e+01
-2.193396504902553943e+02
-4.259282333118673023e+02
-4.612023851188624803e+02
-8.184669807621795599e+02
-1.720123151841833987e+03
-1.580219945823768967e+03
-5.749466300076969674e+02
-6.465212882997383304e+02
-2.129491931886396969e+02
2.268434787046284782e+03
3.289242519822586473e+03
1.692657248135277541e+03
1.213950268007327850e+03
1.407289664240578304e+03
-6.700934038237785444e+02
-2.493037214929841866e+03
-1.720054780492065447e+03
-1.124512200012820585e+03
-1.573660150933098294e+03
-9.693401348775603310e+02
1.154097189391469698e+02
3.368784010261297226e+02
4.470933760888698316e+02
7.042058739165722727e+02
6.872614560551058958e+02
7.116224309954708360e+02
6.784756207219389808e+02
3.477932646498720146e+02
2.084505760426348218e+02
2.033357842859292646e+02
-8.628985287412115213e+01
-3.447991188754955374e+02
-4.353722629915487801e+02
-5.492091097251295650e+02
-4.772913141682698779e+02
-3.229681536657213883e+02
-3.717092475553217241e+02
-2.553795993347225135e+02
7.718733819554675790e+01
1.223510205764764152e+02
5.241819815339923139e+01
2.133754530687077704e+02
3.018981070471468229e+02
2.063346433874121146e+02
1.635569290942246141e+02
1.562646642010198548e+02
1.561979988737354006e+02
1.522350915495364916e+02
-5.743612307340203671e+00
-1.689810054508620851e+02
-1.366656571989774136e+02
-1.523394687805628394e+02
-2.881420999341851825e+02
-2.603437846106555753e+02
-1.370341912297165550e+02
-1.285792933992871667e+02
-9.505276561001223001e+01
2.406420481488305185e+01
7.324038894188882409e+01
9.117699390619149824e+01
1.496902460050774550e+02
1.389463900145422599e+02
6.793444543241017186e+01
5.335210972073396363e+01
2.607046914614263855e+01
-8.360475762552570700e+01
-1.387514951568228412e+02
-8.418722204903130546e+01
-2.171448393993671644e+01
6.133168657693255454e+01
1.528086302324576593e+02
8.108247856308241808e+01
-8.578051092791970689e+01
-1.262641134828880638e+02
-1.713869857888893762e+02
-2.965162562799667967e+02
-1.887406947387658533e+02
6.734377580693740128e+01
3.735871076945240787e+01
-6.292777096800432446e+01
1.251295642681871811e+02
2.279643998917256908e+02
4.736042395187976695e+01
7.899200575683245518e+00
1.050811680542747979e+02
1.318804181601704073e+01
-7.253085663612168332e+01
-3.191652725365134557e+00
-3.745399861185418189e+01
-1.253442891319855903e+02
-9.388289626561689261e+01
-1.159626250401710053e+02
-1.477077880824889746e+02
1.479391349786649101e+01
1.159450238789047916e+02
-1.961361231472913857e+00
-5.947522763868711593e+01
-6.787124689869330041e+01
-1.596758562742486731e+02
-1.032655334185274114e+02
7.612521351375946210e+01
8.465187420254403605e+01
5.862501884705322652e+01
1.305651034363745282e+02
1.045109843523754733e+02
5.822587453316921824e+01
1.249981961116793912e+02
1.022100192494852422e+02
-2.994715184978972289e+01
-1.382233931307154080e+02
-2.571303891093584753e+02
-2.526435354006608520e+02
-8.814423995781768895e+01
-1.276427211700135302e+02
-3.122422981436408236e+02
-2.225080159701120976e+02
-3.978166476588318545e+01
-1.755532864635544499e+01
1.358564463495272037e+02
4.438690259769693967e+02
4.968146816607429628e+02
2.429330782294825326e+02
2.371129594374191285e+01
3.266230760292072688e+01
7.364838347224653603e+01
-4.396624790935981508e+01
-1.054772545701436570e+02
-6.773308757384401702e+01
-2.225849992886050472e+02
-3.577938272098997459e+02
-2.349177053736214305e+02
-3.160535924931678551e+02
-6.701603114461991026e+02
-8.117804021384000634e+02
-6.773220982899767932e+02
-1.326884843795855886e+02
8.970609566307708747e+02
1.713924894987204198e+03
2.085916832349261767e+03
1.961205323630433668e+03
3.719844961540163126e+02
-1.830018888850523354e+03
-2.196150736991047324e+03
-1.443720565601035560e+03
-1.274384177825069628e+03
-2.458399948481536512e+02
1.736569787356927463e+03
1.951313180745886029e+03
3.464650798705535522e+02
-1.093376823838082601e+03
-1.561628392487048359e+03
-9.885763163670949325e+02
-1.084516614821010080e+03
-2.246796502329495979e+03
-1.654164022308632980e+02
4.242289672457356573e+03
3.787567528240005686e+03
1.770545332406253237e+03
5.022095392793530664e+03
4.743499552012712229e+03
-4.688148765172333697e+03
-9.980843759647992556e+03
-6.658800382430312311e+03
-5.384657555641244471e+03
-4.204911649404168202e+03
3.952193686135670760e+03
1.067207176652130329e+04
9.200826305592798235e+03
4.341271147000674318e+03
-1.506827788935398985e+03
-5.653648578939306390e+03
-4.257173408519905024e+03
-2.872910658578039602e+03
-3.142461820901387000e+03
2.389173006800890562e+03
6.784098566848060727e+03
2.292310914263372013e+02
-4.253960790877178624e+03
6.770916234003673253e+02
5.974678340742857472e+02
-4.112653343837579087e+03
-7.594948494793077316e+02
3.390829101367698968e+03
5.881239220820427818e+02
-4.358735305894862222e+02
6.924745858100870919e+02
-1.165699399720078191e+03
-6.088031246810093080e+02
1.515007366380230906e+03
-2.285232668082032035e+02
9.082569295370904001e+02
4.938602199369370283e+03
1.680178066348873926e+03
-3.034687815848746141e+03
-1.443822368519782231e+03
-2.497817034967619293e+03
-6.442705683882744779e+03
-3.960232915684003729e+03
-1.461007732742528162e+02
6.932330539699755718e+02
4.533614417194095950e+03
7.504628340445691720e+03
5.204266248520031695e+03
4.164843017760889779e+03
1.951886885673780853e+03
-6.006691393088834047e+03
-9.150293529837706956e+03
-5.063482041385350385e+03
-3.913225748439008385e+03
-2.125626994671867578e+03
5.057201497886898323e+03
7.254503539075772096e+03
2.893664890063977055e+03
1.363480229656777738e+03
1.200889135847542320e+03
-1.092489530792317055e+03
-1.645482953436549451e+03
-1.356292679096447046e+03
-2.849806067818365136e+03
-3.155990619668684758e+03
-2.078011591452638186e+03
-1.259394724211261973e+03
1.900198059748694504e+03
6.545902014632064493e+03
6.345402703697013749e+03
7.283262498539496619e+02
-2.935891252978459761e+03
-2.139239207118442209e+03
-3.636735217188768729e+03
-6.241311219240500577e+03
4.338929253505356769e+02
8.286253084094223595e+03
1.659412614538405705e+03
-5.069368138514174461e+03
2.080654465758019796e+03
2.363472628069156599e+03
-8.108564391213793897e+03
-3.369914082179068373e+03
8.237410250783077572e+03
2.447791139226502310e+03
-3.361326337701369084e+03
4.420098756164972656e+03
4.224124548521096585e+03
-5.124055938085295566e+03
-5.028605788632848999e+03
-6.858153759707628296e+02
-1.009149880872707570e+02
2.109036867584006814e+03
3.749422909002774759e+03
3.120338213686176005e+03
2.467884600777065771e+03
-4.197711138453782041e+03
-1.098792098883084327e+04
-4.725311264531044799e+03
2.162083135205583403e+03
-7.781946633651189416e+01
3.940342638067636472e+03
1.086419489022462221e+04
4.381284775165483552e+03
-2.649867918427079985e+03
2.254184861404357605e+02
-6.167480230680164368e+02
-4.389461459008863130e+03
-2.422439849256541038e+03
-2.314678105532866994e+03
-3.631432784426382568e+03
3.187348090734591324e+02
1.397461167206324262e+03
-4.961777822973442653e+02
3.272960607397061267e+03
4.139231255032730587e+03
-1.239216806674379768e+03
-7.421349985163731162e+02
1.291499988126179687e+03
-2.415944935393636570e+03
-1.395811994038662988e+03
2.299234818576500402e+03
-1.395314393381604759e+03
-1.620990757683473248e+03
4.210252541045868384e+03
8.197988702526901079e+02
-4.327664045877804710e+03
2.193754864137445111e+03
5.361752260704318360e+03
-2.252606167643303252e+03
-4.351593957509609027e+03
-3.107696685373665559e+02
-1.702857888457460149e+03
-3.846133933472885019e+03
-2.752334224118001771e+02
4.327039619683728233e+03
5.489909115187751922e+03
8.679714330453963385e+02
-6.131005025734504670e+03
-4.721363759267161186e+03
2.774518240679471091e+03
3.098565581130919782e+03
1.051030110425643443e+03
6.383711671941693567e+03
6.552845140660914694e+03
-5.188049420998802816e+03
-9.509472615486234645e+03
-3.735466159158298751e+02
3.468953406903679024e+03
-1.338596351392350016e+03
-2.366584868106490831e+03
-1.945737192211658567e+03
-5.167563817225274761e+03
-4.247051755340501586e+03
1.606374769955333022e+03
5.421520089076826480e+03
8.556526723203902293e+03
8.939655718376152436e+03
9.416205618591817483e+02
-4.739969330600388275e+03
-6.301151734839542087e+02
-7.861576069439732919e+02
-7.057668055948394795e+03
-4.249264360168900566e+03
2.275423527879838730e+03
1.720848360656619889e+02
-9.919472870313696831e+02
3.238320561826905760e+03
1.710373265618837422e+03
-3.159514224378649487e+03
-3.363915574903704965e+03
-3.167637466159816540e+03
-1.410083539647454245e+03
5.776832885483436257e+03
8.210958124366443371e+03
2.840183236303851118e+03
1.127906886248480760e+03
1.647478132426359934e+03
-3.281833587432237437e+03
-6.043994204576820266e+03
-1.957236836149125565e+03
1.238091200773589406e+01
-2.161463765823626545e+03
-2.368466944176221205e+03
-3.678457736832546061e+02
1.359980300696336371e+03
2.109844093247706496e+03
1.372799396028815408e+03
8.509622937972713999e+02
1.546201805556610907e+03
9.410637298841230631e+02
-5.701696420712934241e+02
-1.585913209363586986e+02
6.500651649359884914e+02
-2.050073054585571128e+02
-1.104515468923013032e+03
-1.044006508219971920e+03
-5.659809004337676015e+02
2.436559405004416234e+01
-1.076520317053757196e+02
-7.407995362174278853e+02
-3.543137900734936920e+02
4.925096456742710416e+02
4.883650309043611628e+02
2.441765963998260247e+02
1.701713142136745773e+02
-4.510905168599190773e+00
2.315735166594226513e+01
-1.341695314312706699e+01
-1.478889861099008272e+02
5.129427525851892824e+02
9.534707583594704374e+02
-2.182257621368162859e+02
-1.093036192639023284e+03
-2.696374419443049533e+02
3.103457036717612709e+02
-6.944459845568225376e+01
-4.031499850350243719e+01
2.445839278851403833e+02
-1.302136481897125719e+00
-3.673259171602014135e+02
-4.858266532723477553e+02
-3.084122742765796374e+02
7.547070102357281485e+01
6.689585056429613985e+01
-1.858250379351050867e+02
1.806595679915237440e+02
6.926083179944124595e+02
5.150363096576016915e+02
2.220944317420647280e+02
1.475451935390708513e+02
-2.096214346266498865e+02
-5.235237960130858710e+02
-3.684175546209427807e+02
-2.763797769762906569e+02
-3.122665717022247236e+02
-1.764074320213003588e+01
2.203900040664030087e+02
5.437488389580268944e+01
1.970239720827416718e+01
2.022943439411717463e+02
8.975046823874903623e+01
-1.748682527852070052e+02
-1.589367147537370215e+02
2.720008814456612356e+00
8.980104434232789856e+01
1.386005200852124517e+02
1.325836503027247488e+02
7.333426563343041948e+01
3.149724486524942080e+01
-4.954687837178718013e+01
-1.814017313908099709e+02
-2.207852387451208642e+02
-1.678149002342894391e+02
-1.473302404194942881e+02
-1.288772455484392196e+02
-1.981285110887300860e+01
1.137291746239012298e+02
1.208808031277414159e+02
2.245637958667881406e+01
2.540135163245424721e+01
1.317478599832293753e+02
1.106814684389710379e+02
3.896008308555997246e+01
1.163905234973649669e+02
6.368833537254138832e+01
-2.488069897823957035e+02
-3.115230643166013351e+02
-8.580707579291274101e+01
-1.377419988141238321e+02
-2.593551308635057921e+02
5.068129615665496601e+01
2.846722467948409871e+02
4.896875442167079484e+01
-2.773069636904701341e+01
1.933161808128427026e+02
8.843067988777522714e+01
-1.939837582492849322e+02
-1.230202922978272113e+02
8.503768267990615470e+00
-8.901699908477030476e+01
-6.344839512196841724e+01
1.057408060000099681e+02
6.080265709935247287e+01
-6.533408955253374018e+01
4.853748024928989935e-01
5.134522440313787683e+01
-7.297660520122349226e+01
-1.086190115303559338e+02
4.009281122298602185e+01
5.099260825996035607e+01
-1.568134579231440568e+02
-1.955214673846886626e+02
1.270963658275683983e+01
4.968483992791733783e+01
-1.033369555341861599e+02
-2.594242554192607386e+01
1.913090852440324454e+02
1.337536698012873160e+02
-4.625904887763073248e+01
7.779539211797825260e+00
1.379153336735712116e+02
4.296360826157799551e+01
-1.897612116820506287e+02
-2.639310148615136882e+02
-1.149293785706661311e+02
-4.318018540225956770e+00
-3.840564794499617562e+01
3.731321827316344297e+01
1.929501217567939477e+02
5.718727103610945051e+01
-2.250209100157220234e+02
-1.992838157327780380e+02
-7.303210248912112235e+00
3.906256723082623239e+01
7.280823956112699591e+01
1.333099457748091936e+02
5.723906980719777238e+01
-3.009783071302972957e+01
-2.380612814023352897e+01
-5.245924188638467456e+01
-3.847259324273067449e+01
6.666457714942004031e+01
1.994598186839436238e+00
-1.634927719946109335e+02
-9.304164059575839474e+01
3.221772009477597010e+01
-5.735856815831620281e+01
-1.192884666010140933e+02
-5.558313862467551303e+01
-8.882340249583847935e+01
-1.069771921469656206e+02
6.473898362284259633e+01
2.034116878890731925e+02
1.768419667706774021e+02
9.738672667836402752e+01
-3.764810890654531761e+01
-1.682613280171461554e+02
-1.292435887714200362e+02
-1.122628428777731813e+01
5.082191874938477838e+01
1.062474373023106153e+02
8.596347348179934045e+01
-6.914581923340213621e+01
-1.503310586485014255e+02
-9.327803819267070651e+01
-8.495494927803167684e+01
-1.308864592991601796e+02
-1.378140730584688072e+02
-1.509228803217789334e+02
-1.577990390029329149e+02
-7.016038954109190229e+01
9.994887970203146210e+01
2.632629857785976810e+02
3.156537483334068384e+02
2.729524881545612516e+02
2.770174228560651954e+02
2.637376745710568002e+02
6.832856863348983723e+01
-1.747892390734683943e+02
-3.655838592807326677e+02
-6.298123082003826312e+02
-7.748251503018520907e+02
-5.219185141378507069e+02
-1.154496157119597797e+02
2.074887001347911735e+02
5.246737067859039598e+02
6.542580658541697858e+02
4.267638367513318371e+02
1.628002890865434154e+02
4.110471851960069500e+01
-9.931389790463117606e+01
-1.928002654012834114e+02
-1.460620496690418975e+02
-1.192043694935211562e+02
-1.371041793321810758e+02
-1.199498125661631747e+02
-1.272778919649424409e+02
-1.434449722711919435e+02
-1.188586624592799410e+02
-1.140511075810492372e+02
-6.848901602287637047e+01
7.986354972736212687e+01
1.690702791042167803e+02
1.468087701368530134e+02
1.227060992119016873e+02
7.038739499981822689e+01
-5.798336233905985182e-01
3.206120628071069234e+00
-1.199712212684204360e+00
-5.023614275798109929e+01
-3.463869120498166865e+01
-4.070470590237456321e+01
-1.374310642421393425e+02
-1.327432116152224069e+02
-3.471796229258137600e+01
-5.692416935087260299e+01
-1.217445526835048781e+02
-7.056292302226985669e+01
1.381400466434642027e+01
6.924170523468535521e+01
1.148966095397345839e+02
1.038510724092518132e+02
3.850965211982379799e+01
-3.925451979636146405e+01
-1.212718471115674532e+02
-1.125155942863940197e+02
2.956759797185184979e+01
1.144770419469334684e+02
3.611043768691468614e+01
-5.091674470713380884e+01
-6.264624756517864057e+01
-7.794436190902305839e+01
-9.725343741337128733e+01
-5.863037000260959530e+01
-6.511807449919960078e+00
-1.726702814120164220e+01
-4.561733133647676652e+01
-1.187790876462630862e+01
4.698908534312080576e+01
6.801888129688860829e+01
4.643332347358791878e+01
-4.122886530149874318e+01
-1.421748075494810735e+02
-9.677177344986398566e+01
4.196324683844717640e+01
6.841061623060461727e+01
4.952017454203880220e+01
8.980351497188672738e+01
5.736016961185217866e+00
-1.922108052907862543e+02
-1.876670165286950578e+02
-1.159366475028109278e+01
3.372774384543676263e+01
-2.247630780666935024e+01
-4.831184954425012279e+00
2.806246502577185353e+01
-5.914487950168958008e+00
-4.382067332667882198e+01
-2.283821078968520979e+01
2.889605135489053467e+01
2.466085499172177720e+01
-3.803961799176160952e+01
-3.706857858788558246e+01
2.919411269105183138e+01
1.400091808487641387e+01
-7.268817145880339581e+01
-9.394883284881564123e+01
-5.508725885347905660e+01
-2.969592021790655778e+01
1.999241024768750208e+00
5.775027288399104464e+01
7.243713132730627535e+01
-4.202711174834018237e+00
-1.050342743016566942e+02
-1.159177678312681223e+02
-4.835405043030383609e+01
7.447826596373822383e+00
5.191976646402432038e+01
8.088474910367243353e+01
1.902022647863525506e+01
-7.948454133870475857e+01
-8.874376322852411647e+01
-5.805613415965360957e+01
-5.789124663606739318e+01
-1.505772174543185926e+01
5.822749102432219104e+01
4.533281689278975790e+01
-1.406675028014615592e+01
-1.896854497695293773e+01
-2.205185595595672154e+01
-6.994687501235870286e+01
-7.356910154092477683e+01
-6.432391145326921134e+00
2.880700346441678050e+01
1.445028369070740837e+01
2.825739988467093511e+01
2.723710508416410647e+01
-6.352983213734087542e+01
-1.233402080986812308e+02
-5.665767493463347648e+01
-1.513450010683487434e+01
-5.894373034674390510e+01
-2.851968825889820991e+01
3.383853155760878195e+01
-4.210427677876873531e+01
-9.161054982663149815e+01
7.264585158428070599e+01
2.119861153022018527e+02
1.375601721229799921e+02
5.021927750759930120e+01
1.615599421318564666e+01
-1.487535968793584971e+02
-3.459284153770482249e+02
-3.013692555357466745e+02
-8.877106889924462507e+01
4.983507652478417072e+01
1.018769521904860369e+02
1.346124361316081774e+02
1.136473781849830544e+02
2.873631582788921435e+01
-5.706209453631966255e+01
-6.917016448879596169e+01
9.227708967690457342e+00
4.918672871884521669e+01
-4.786002000470976014e+01
-1.134561018804123194e+02
-1.940711785947289414e+01
3.876135884699161238e+01
-3.271380738175635372e+01
-1.971190745180529191e+01
9.190859957449315232e+01
5.470517076606996909e+01
-9.686150760683780447e+01
-1.032444506324134750e+02
-1.024481678545301833e+01
-6.926469845913457846e+01
-2.319792718396633973e+02
-2.340891335417678079e+02
-9.170880450248129989e+01
-2.116317429090093682e+01
3.700711402230621871e+01
2.358634785921213393e+02
3.853011427966851556e+02
3.026627472220915820e+02
1.734128848666512397e+02
1.247373173624244487e+02
3.543006512257566243e+01
-1.402742859226413259e+02
-3.798365562466978531e+02
-6.210403734702185830e+02
-6.531781224110046651e+02
-4.453648152164304861e+02
-1.850646383826186820e+02
1.818375298461924672e+02
6.359433645831786635e+02
7.451495755849397256e+02
4.481676703457442272e+02
1.912969785582311602e+02
3.277200887880022151e+01
-1.856375594342179056e+02
-2.842980962417989304e+02
-2.368171014558735408e+02
-2.399524207614043405e+02
-2.197725207232134892e+02
-1.441010265163919541e+02
-1.399328771613998299e+02
-6.740619097294954543e+01
9.655531587162445817e+01
5.807208354523528726e+01
-7.447326637394095883e+01
1.335891853619919445e+01
1.490702293919041210e+02
1.475410251727514037e+02
1.355787109569440929e+02
1.092507627048098300e+02
4.447941627264270181e+01
1.046187646911447544e+01
-9.128924405536264430e+01
-1.910043651424893483e+02
-7.318800773283723515e+01
-3.101424903888835161e+01
-2.759819315515537710e+02
-2.966705109346480640e+02
1.579111260335574229e+01
8.654005166653431047e+01
-2.103109389564462361e+01
1.230327126115241754e+02
2.197992298188579241e+02
1.580807128904756453e+01
-7.352812642610359717e+01
5.328458849793643282e+01
5.937474867734316319e+01
-5.941652126742550166e+00
1.705190816838460677e+01
-4.256276516868644677e+01
-1.648495182951249376e+02
-1.068166042892121936e+02
-1.383794581273155089e+01
-1.276660862544420212e+02
-1.977250330886642473e+02
-1.336155119219721854e+01
9.918356487843826130e+01
-1.069543786070283176e+01
1.286503619480773608e+01
1.877753671603831549e+02
1.051219763250968953e+02
-1.386325992570519361e+02
-8.999617175460851115e+01
1.303535933134814400e+02
1.188149340077604137e+02
-2.817522074563975920e+01
-5.564961849711631459e+01
-7.709962326061224758e+01
-2.104856453753510834e+02
-2.678533554413867250e+02
-1.291358907263902438e+02
3.531959324678355472e+01
8.205008626146346273e+01
7.071751135408453592e+01
6.645420895546318718e+01
6.625391022195232438e+01
7.430430184769488733e+01
5.630019853441711319e+01
-1.842824165149131588e+01
-6.765205566490301692e+01
-4.534510228814453114e+01
-2.650535452260453084e+01
-2.361710704717475195e+01
-1.261280577139057613e+01
-4.430324782546641416e+01
-1.091895245359188209e+02
-1.557459827529530685e+02
-1.774061091936365528e+02
-8.273204754732007871e+01
1.240068366127871684e+02
1.718183289781426879e+02
3.962478844003176448e+01
2.906810724367574394e+01
7.360591749053497779e+01
-4.784199753327921911e+01
-9.450431109369064586e+01
6.600221762062780329e+01
9.771418896709079149e+01
-5.064719756914249160e+01
-1.088913923269907258e+02
-1.111289515186058026e+02
-1.526861783346462005e+02
-1.091478437367985350e+02
-1.871563976289763787e+01
-1.478024101742668250e+01
-2.762969849451103244e+00
5.995480237971422355e+01
4.013354639392699852e+01
-1.987645439495631905e+01
3.748201632870055278e+01
1.373862023367080951e+02
9.645987340703997859e+01
-4.026945663404487163e+01
-9.408244642488614318e+01
-9.219313876489027848e+01
-1.658131638339781375e+02
-1.893182784953694124e+02
-8.898833254544349813e+00
1.493128990723144227e+02
7.085699408265045918e+01
-4.441415853255461599e+01
-4.832060180432474539e+01
-8.070867640636214446e+01
-1.168231709104459668e+02
-2.723543487134360674e+00
1.357427078779543876e+02
1.183976157192984999e+02
2.541632630592586750e+01
-5.023793469312087723e+01
-1.269371595090375422e+02
-1.391999130537138853e+02
-3.158172027566844875e+01
7.186963210031420601e+01
6.664052342158990427e+01
1.351123695844785644e+01
-2.742569491254652192e+01
-7.057365788343443569e+01
-1.040631466543352843e+02
-8.145747907711567848e+01
2.260729268883196141e+00
6.411270674767405353e+01
1.228025444810290168e+01
-6.960054890033985941e+01
-4.518368078325047321e+01
-3.321847508804764715e+01
-1.275257421411690046e+02
-7.965793692074858257e+01
1.411728144528965174e+02
1.637419911715856529e+02
2.440286142074965525e+01
5.795895285392050056e+01
6.695815777157312709e+01
-1.364171594931722211e+02
-1.601347914833708046e+02
4.575344971076562217e+01
6.231104693154564700e+01
-3.807353929281327254e+01
-5.136038109578510102e+01
-1.963899009323292830e+02
-3.840865532389117334e+02
-2.840510458914593528e+02
-8.961269787437694845e+01
3.686446516123918116e+01
2.816075154560364240e+02
4.358893925323324083e+02
2.807281363446281830e+02
1.925319997690610023e+02
2.648036800594128977e+02
1.369992405300209555e+02
-9.273552628020978261e+01
-2.058606362788654280e+02
-4.006593136792513974e+02
-6.545129132292790928e+02
-6.765949385111471202e+02
-4.590325379523324614e+02
-8.461013248988275848e+01
3.392426066170476702e+02
5.542327225351990592e+02
5.775768605471951105e+02
5.525065223201036133e+02
3.012990079369468504e+02
-8.354839794146191423e+01
-1.858106157519365524e+02
-1.580382518485531591e+02
-2.906454768685428576e+02
-3.069887940388385914e+02
-1.599276553083456918e+02
-1.701406762626892260e+02
-1.959425704202136842e+02
-5.812450658689866145e+01
1.276130773064588197e+01
4.472536826753071892e+01
1.763176896165007292e+02
1.706945437586820731e+02
3.159450310696749753e+01
3.639473202551706521e+01
4.528673754464762169e+01
-7.204488663871596543e+01
-5.813413406315827814e+01
6.150895416431363572e+01
2.730500811452320420e+01
-5.282699347626713404e+01
-2.369644863403473778e+01
-1.678924591462986271e+01
-9.246114991849609055e+01
-1.266613485930137131e+02
-7.310862124490657266e+01
-4.198323871968798926e+01
-8.994489213814509299e+01
-6.899268904212011932e+01
5.023071682462513365e+01
3.660766039951468542e+01
-5.589313257530804435e+01
3.183205847133893229e+01
1.054051078411616089e+02
-9.461801807593108293e+00
6.818531050265232096e+00
1.409668971900599956e+02
3.224610541168341626e+01
-1.270951371013908897e+02
-6.737394423667801391e+01
-4.435976294046958657e+01
-1.201926964194702805e+02
-7.582465743266627101e+01
-1.615785080775152238e+01
-5.196564059049866557e+01
-5.526056301466887533e+01
-2.111641693571773715e+01
2.696225542053036861e+01
9.842867706313286646e+01
6.016320293232578820e+01
-5.040607032043675417e+01
-5.158754080011021870e+01
-5.074695138366345049e+01
-9.949815295762759604e+01
-6.251005103226550119e+00
1.130452656695837277e+02
4.678857082883253327e+01
-4.142027549637818140e+01
-5.125452463407351900e+01
-7.578895481454833316e+01
-5.456898692174672760e+01
1.569952730999258605e+01
2.104052568314001093e+01
-4.992700127928124232e+00
-4.855409323745899997e+01
-1.100410541657740850e+02
-5.960613285167862330e+01
2.688919701353460923e+01
-1.620524192901843463e+00
8.744621645577279168e+00
4.673876339974344063e+01
-7.753934948642529434e+01
-1.229483029127247420e+02
4.694892285530026754e+01
8.108182565056274882e+01
5.990529685073390453e+00
8.379437924012995609e+01
6.704299186772145447e+01
-1.435605832120413652e+02
-2.031220633479752280e+02
-1.143998570721666965e+02
-5.739370219746695767e+01
4.158716574028451873e+01
1.219442700668019768e+02
9.070100304767068167e+01
4.332224672281214595e+01
-7.822080361162745987e+01
-2.314129670924943412e+02
-1.378624154776536272e+02
4.659717024606719349e+01
4.857834335293190975e+01
8.926829879779477039e+01
1.590790498887245690e+02
-2.812560574928046364e+01
-1.823957089321711749e+02
-6.141378136540882338e+01
-2.577766223488083597e+01
-8.607098173078105674e+01
2.799501385661611152e+01
6.562383936408689067e+01
-8.046985036556255011e+01
-4.296183312847931290e+01
1.193380560034419062e+02
7.892927633739651583e+01
-4.134916191387044648e+01
-7.845999816556299322e+01
-1.358732162415817299e+02
-1.899773048771297681e+02
-1.243200494211270097e+02
2.363043358323679399e+01
1.463837563857701696e+02
1.489921145437082544e+02
3.663209739426406486e+01
-4.398701314849481037e+01
-3.194047466904838117e+01
-2.644733344516318141e+01
-5.605847453517370127e+01
-4.334749037278376704e+01
1.064391220616283107e+00
-2.195182899259829412e+01
-7.756765265927826647e+01
-1.900462703305717582e+01
8.239035269179287013e+01
2.415947752931192127e+01
-9.606625412973168920e+01
-9.044711885375906490e+01
-6.882810412745865847e+01
-1.020214252292157084e+02
-5.744899481014849130e+01
2.778787405119507525e+01
4.153933522524458510e+01
4.045460572563196422e+01
3.697409466872979067e+01
8.935918402203093081e+00
2.417534540641862861e+01
4.388012167665591790e+01
6.013498623307008017e+00
-6.241443479585520038e+00
8.453205555636202462e+00
-9.212048699930534212e+00
-2.948109498357048253e+01
-8.885081597929134034e+01
-1.665948571269086926e+02
-1.331926137987334471e+02
-1.047131288798942421e+02
-1.624949175145884226e+02
-7.958274318673549885e+01
5.161708547520974832e+01
-1.888250720700155583e+01
-1.012107391225953634e+01
1.894087661706494146e+02
2.110767403238076838e+02
1.556900017190856715e+02
2.500229622587635561e+02
1.852255904815233976e+02
-4.614094470541608928e+00
9.188796998433574004e+00
-8.180804790821022721e+01
-4.374932598620382578e+02
-5.898613115833226175e+02
-5.327993021256477277e+02
-5.180223967025995080e+02
-2.559180701160461808e+02
3.097482820765907832e+02
6.929646111299670110e+02
7.081877336442196338e+02
5.114259030632343865e+02
2.340416937108302875e+02
-2.991808055284501222e+01
-2.716750787702353591e+02
-3.758330990321013019e+02
-2.060437392590502839e+02
-9.279371774719008670e+01
-2.558550991884262942e+02
-2.567162602210858040e+02
-4.631233359609534972e+00
3.420092449123325196e+01
-9.054525496854746791e+01
-5.455594043794296510e+01
2.302344696984608419e+01
9.341171673589123259e+00
8.054876821482075400e+00
1.304192033406040423e+02
3.544159971928842765e+02
3.351053061557158799e+02
-4.189562551577563454e+01
-2.051497214838821606e+02
-5.086107631198875367e+01
-1.561416194217783016e+02
-3.241959630660288667e+02
-8.490221263337031132e+01
8.796415208369654692e+01
-6.816591328700985741e+01
-7.961201182202864857e+01
3.889339566184009556e+01
2.130994804117369412e+01
9.982186364352791941e+00
-2.829288808937043243e+01
-1.360883978892791220e+02
-2.545384460968020690e+01
1.654287283561585866e+02
7.822923243666275539e+01
-5.572856092486735236e+01
-4.636248297720857892e+00
3.202723213567052341e+01
-4.588893018817408631e+00
5.284264466648135539e+00
5.817057102425137316e+01
4.220693361032453339e+01
-1.431898648955390172e+02
-3.188035704755488382e+02
-2.146247410135260623e+02
7.195213237499960002e+00
1.100936470865910337e+02
1.402804025012307534e+02
5.398005118593026452e+01
-8.526941800190610365e+01
-1.038381128203672077e+01
8.174681012116914758e+01
-6.773204274668528058e+01
-1.258068381339156332e+02
1.960548320928285193e+01
2.492003023167405473e+01
-8.915715603702889780e+01
-5.621717822076591631e+01
1.561050031133566733e+02
2.679033675668584920e+02
-8.830922780403290062e+01
-4.747235959324468126e+02
-9.807815787894921300e+01
3.957099212595132371e+02
6.386746310717477115e+01
-3.084669279647299618e+02
-6.269238259356848175e+01
2.196298073112049565e+01
-2.449017135962098450e+02
-2.160298793933141326e+02
1.537001685108433549e+02
4.320823445029091658e+02
1.509782078297828889e+02
-4.752791983698685954e+02
-3.168345445728996310e+02
4.774916941346147041e+02
4.716976409492183393e+02
-9.676855660155229089e+01
-2.445171059065818895e+02
-2.434385803909507047e+02
-8.528286951162351670e+01
1.731613975985509910e+02
-1.423790372743451940e+02
-2.471124910428138222e+01
6.619905486919942632e+02
-6.465438584240317823e+02
-2.307062972138538044e+03
-1.397198329240899284e+02
2.346497577281806571e+03
7.658595546242581804e+02
-2.691076076967686390e+02
1.409202703612024379e+03
3.641807070084215638e+02
-2.546448293332235608e+03
-1.546976437029145245e+03
1.010582034576677415e+03
6.777833497866172365e+02
-2.750805589153793562e+02
8.356444874284427726e+01
1.248036471064605308e+02
-2.277078193937001913e+02
-1.628022264245543056e+02
8.082868393719920164e+01
4.551164859835948846e+02
4.325724986549715823e+02
-3.902505436542811594e+02
-6.948704361844288542e+02
-2.412571390440833952e+01
3.167301415845557244e+02
1.658797456234604510e+02
8.754116036584909466e+01
-1.035031946111434138e+02
-2.092344909413968708e+02
-5.349750644952654000e+01
-1.027131971719071544e+02
-1.134056524802054753e+02
1.824824981052121018e+02
1.246208962570674856e+02
-1.966433800857598726e+02
-9.871153373507918616e+01
1.237525346031358993e+02
1.363564626384699636e+02
8.450363795901029107e+01
-1.333482039324389632e+02
-2.598266979846106324e+02
2.515977406993366117e+01
1.191709383301316905e+02
-1.648272341433352608e+02
-1.453344071004477769e+02
6.508464194359203248e+01
-9.672456343183700511e+00
-7.541360671162227902e+01
3.587491078404899270e+01
1.074520472935943189e+02
1.232783417918128208e+02
8.773151857247114549e-01
-1.703350672766078446e+02
6.215279075329860348e-01
2.476994893732676246e+02
5.702901044603532910e+01
-2.336310468367631188e+02
-2.325789224695256223e+02
-1.478219109610920157e+02
-9.198310302872988586e+01
-1.970627528131209161e+01
3.630132575067239031e+01
8.919662980550219800e+01
9.121265548221977326e-01
-2.422390786852967892e+02
-1.826714916077447128e+02
2.080416108432104636e+02
3.256766776825247689e+02
1.302262315203963681e+02
5.529353174349478195e+01
6.688837901645625550e+01
1.182981355825329572e+01
1.896794963935225908e+01
6.429085974150032712e+01
-4.981164527439975132e+01
-3.362278236871291597e+02
-6.051984003652505635e+02
-6.533951700892502004e+02
-4.172129808905735899e+02
5.508765809311645967e+01
5.806602504463653531e+02
7.757778761175175077e+02
5.399879401306181990e+02
2.679792692614357179e+02
6.329155319621352760e+01
-2.733464789929510630e+02
-4.488275448699153003e+02
-2.351708794916606280e+02
-8.461684756196390822e+01
-1.670894593229471639e+02
-1.343042070661585399e+02
-1.706410715809567336e+01
-2.621059146856115163e+01
-4.992932706452351255e+01
-2.255633737917437642e+01
1.278087093930866658e+01
8.016745376420047364e+01
1.102396373636341025e+02
8.619649059800508439e+01
9.373832867163372384e+01
4.324627847092300215e+01
-7.497301108116229784e+01
-9.681706438994970654e+01
-1.041225212223414474e+02
-1.441445616713479296e+02
-2.510893821180337326e+01
9.552128378818854060e+01
8.194322891662757513e-01
-9.995149328230834129e+00
1.255259842249724898e+02
3.689196620994698606e+01
-1.557168897389045412e+02
-1.385371210980833041e+02
-1.059423189666964333e+02
-1.638352251294147663e+02
-9.071636139026256274e+01
7.197612524471333018e+01
1.326917482715431333e+02
9.159459413223450497e+01
7.156970858969145866e+00
-3.510391380426386121e+01
3.778790105146715206e+00
1.156155669984831391e+01
-6.618807650981121782e+00
3.870330664256519526e+01
2.478736926282966380e+01
-8.781058634975930488e+01
-1.036361439738068952e+02
-2.467069713646621665e+01
-3.181200610359905312e+00
-2.474904921272920433e+01
-6.314046037001786260e+01
-1.260680334122518786e+02
-1.416983336724140656e+02
-1.037662239942291507e+02
-3.235610241841673229e+01
1.101335425382611959e+02
1.968323487000962473e+02
1.073537670709900596e+02
3.406917521780087554e+01
6.625858080823897467e+01
-3.517658899488051105e+00
-1.370072367518415319e+02
-1.071101225023188306e+02
-3.432762341648938786e+01
-9.757529137248189954e+01
-1.183597188662522228e+02
2.871303435738916221e+00
3.385074027490743731e+01
-7.679725579674997960e+01
-8.080801193239327063e+01
3.518880007705860891e+01
5.086435904133755059e+01
1.364203518608028176e+01
7.144649491233163019e+01
6.811294689335034036e+01
-8.352900551101784288e+01
-1.476737026827954367e+02
-6.183259362531904202e+01
-3.301610389686899794e+00
2.819049962859175906e+01
7.172945640716055493e+01
2.595547502594160605e+01
-7.027250873882896087e+01
-8.869183054395918475e+01
-5.778996228869511498e+01
-1.571169378245878434e+01
3.432869787754231083e+01
2.423443486052777374e+01
-2.811930052723940676e+01
-4.668574481639976170e+01
-6.553294685988790036e+01
-7.485910162881302199e+01
-1.596955523391991250e+01
1.754739863991341053e+01
-2.449029295560942998e+01
-1.837499772095882378e+01
3.534589548478923859e+01
1.839840379977987794e+01
-3.225434050762819282e+01
-2.053811371924691898e+01
1.505791440986169505e+01
-1.165174864792225407e+01
-5.658408717326690862e+01
5.843336273387382818e+00
9.098435192589718667e+01
-4.213461860612930820e+00
-1.299730175058622876e+02
-5.073657817236858136e+01
3.735193087297943748e+00
-1.272481408959898346e+02
-1.315590216787009581e+02
8.444036872107982816e+00
-3.621921479074234185e+01
-1.246659456739801897e+02
1.409667326412116140e+01
1.488820926611430764e+02
1.091041601060152999e+02
7.839098154451374967e+01
7.891289526319657455e+01
1.827608376555311764e+01
-2.814201145211215405e+01
-3.727364633751650302e+01
-6.059332183604246325e+01
-7.247354056633290043e+01
-1.127209872732529732e+02
-2.070510847912552777e+02
-1.968402062875982494e+02
-5.463121519455371100e+01
2.032817502489620765e+01
2.721630165526874379e+01
1.054895880439723896e+02
1.310771761742385308e+02
-5.463580446111308220e+00
-5.768194848403101105e+01
8.143424145835805916e+01
1.126041740129489455e+02
-3.241943810723043384e+01
-5.725068501011893574e+01
1.720291714053446697e+01
-6.359444266154590508e+01
-1.530413584398378930e+02
-2.743926714483562179e+01
9.484289848456266725e+01
7.046187879522122444e+00
-1.180334841507254993e+02
-1.205247729429137280e+02
-8.262152006019726969e+01
-1.083262720861236232e+02
-1.422588672694600120e+02
-5.990194176119707947e+01
6.563974979332496673e+01
4.438618259357247808e+01
-2.845308644408441268e+01
6.358266549554815583e+01
2.177614692755615522e+02
2.419560026054096795e+02
1.748293655025496776e+02
1.259576015587894773e+02
1.209039022376193202e+02
2.561961569154654228e+01
-2.868825930497305308e+02
-5.359181713954402539e+02
-4.667253395989931164e+02
-4.307206214995824780e+02
-5.198516777439868974e+02
-1.867498938250818696e+02
4.353418705990324611e+02
6.154883356156343552e+02
4.929768950183523089e+02
5.232759978717202785e+02
3.993371239266658677e+02
-3.206766731790417424e+01
-3.077878220663538400e+02
-3.043697151802821850e+02
-2.720975779325717667e+02
-2.694810966033783757e+02
-2.664217928888101596e+02
-2.085426234256466387e+02
-5.487796940099737952e+01
3.932599005965448669e+01
3.384574045521509333e+01
9.226216269310444318e+01
1.380840622722270155e+02
5.489634557015033067e+01
1.710833269631940823e+00
2.805874647188207049e+01
4.271041937923043719e+01
6.185949790040523766e+01
2.141497157845279986e+01
-8.207757588860975773e+01
-5.130993340851858875e+01
1.911266168230588747e+01
-5.367553723749575312e+01
-3.352209996482629606e+01
7.802607523211584351e+01
-6.256727871483187187e+01
-2.232569019453356418e+02
-9.815052254369413731e+01
-5.795561615997659999e+01
-1.698385241140018707e+02
-3.173988851342064166e+01
1.273306235635007084e+02
-7.917504947412798089e+00
-3.141884104327471761e+01
1.674263921911814350e+02
1.605674585486728176e+02
2.880284323871509855e+01
4.972335776613334701e+01
2.424439589129169192e+01
-1.022428566474294627e+02
-1.058212365877483450e+02
-7.499725101009244099e+01
-1.184500246796133212e+02
-9.231117000579240539e+01
-5.951181795397948804e+01
-1.304176747587813452e+02
-8.931026794848897055e+01
9.674052547467320551e+01
1.267184987007769337e+02
1.539227174702850576e+01
1.388702125765937367e+01
3.664105967226389282e+01
-6.974997611037062484e+01
-1.177246854781557630e+02
3.002086710535575165e+01
1.496768022433680017e+02
6.118301979766584253e+01
-6.774703360083499604e+01
-6.395736189285656792e+01
-5.094990112180111907e+01
-1.255156853312081324e+02
-1.145151377033841698e+02
1.518874182270001683e+01
2.410757234549181405e+01
-8.008695426885729773e+01
-6.132102651884898847e+01
1.748492949149827780e+01
-4.653281298711558378e+00
-2.021461484672975928e+00
7.894848227318892953e+01
7.115204692752969606e+01
-4.126367186390154984e+00
-6.126603454815779060e+00
2.576643450652699840e+00
-6.057425160893428284e+01
-1.157880592448605768e+02
-9.565402679583296219e+01
-4.821384246238990556e+01
-3.893221116832958018e+01
-2.704241296766021563e+01
5.319063677857027983e+01
8.528243603994685884e+01
-1.989527015187164594e+01
-6.263924376505210034e+01
2.721961657426190584e+01
1.865089108906120074e+01
-6.606342484842731722e+01
-2.857528502953801208e+01
6.580397723166807822e+00
-6.111737642123886616e+01
-6.597048283989357742e+01
-2.712964938606870291e+01
-5.880773966968666855e+01
-6.825441339892563519e+01
-4.200550758520578398e+01
-2.138444197603831753e+01
8.864214732869280056e+01
1.858024326295830235e+02
1.072458860912827419e+02
2.701625089080086894e+01
-9.264356349021483084e+00
-1.771852515040043272e+02
-2.634333035517552730e+02
-8.831525589767882423e+01
1.076257749507181671e+00
-7.262725465518744272e+01
-6.412087823674252007e+00
6.925560415515802504e+01
-3.194282873183400895e+01
-3.391890413703917773e+01
1.056805406660128170e+02
9.476496298425591647e+01
-7.685199435820205593e+00
-2.480266141188385731e+01
-4.894477348653144588e+01
-7.275561094623913050e+01
-5.855429278969026541e-01
3.516521315948780568e+01
-3.138904838512047490e+01
-4.830164432021635434e+01
-2.677468682209778095e+01
-8.909080305873814609e+01
-1.153632439543230106e+02
1.449443430279998779e+01
8.888232048206732827e+01
-4.117608933442235042e+01
-1.233676022037365385e+02
-1.064564658953797505e+01
3.869299270292817994e+01
-4.943429822808829499e+01
-1.141413320473227699e+01
1.035422645632389305e+02
2.152876915077129993e+01
-1.010147358938797311e+02
-1.336512929244404191e+01
8.586215498381525890e+01
2.685461633464890596e+01
-2.120970706552701657e+01
-1.642981830007593658e+01
-5.737191764244720105e+01
-5.728554537532411928e+01
1.842218935982364769e+01
1.482077464562052072e+01
-7.053445115246418595e+01
-1.289380162410158164e+02
-1.895282008047251736e+02
-2.311400613174811269e+02
-1.389970609172403044e+02
1.709534629681431639e+01
9.080915562690768184e+01
1.193818621980324224e+02
1.735266385082407510e+02
2.271552530432004744e+02
2.710619710848984028e+02
2.994008196792806871e+02
2.505331982760609151e+02
5.751397087269756980e+01
-2.685732007235174024e+02
-5.322407706229099631e+02
-5.704215970758233425e+02
-5.659025428191554283e+02
-5.959625003211713192e+02
-3.264211233766382634e+02
2.045883250169219423e+02
5.009035265687338665e+02
5.923433423858274409e+02
7.586536952182661935e+02
6.687934730920713946e+02
1.038094855539351187e+02
-3.939893482475492874e+02
-4.046997905380464431e+02
-1.759124875605934619e+02
-7.994807094798966318e+01
-1.541811169142433755e+02
-1.888410038186031272e+02
-1.643520292986069933e+02
-2.570703472701837313e+02
-2.793508925223718506e+02
1.696804944781529301e+01
2.672799222121135472e+02
1.442285712035972551e+02
-7.530329339110114972e+01
-1.324296557049531202e+02
2.595181670402482155e+00
2.535132948928229268e+02
2.787865470941939066e+02
1.906382802262185550e+01
-7.591100003774855054e+01
3.253403189567379172e+01
4.986734219268181079e+01
7.224544384547506581e+01
1.301716850455719623e+02
2.043602975397701726e+01
-1.947654755246936986e+02
-3.874066424222813794e+02
-3.850103745331335858e+02
-5.908329087114644551e+00
2.291468707949637746e+02
-1.716524226100020201e+02
-5.275517925949126266e+02
-2.833038542403363635e+02
1.049618128525078902e+02
3.312594623055514376e+02
3.694263804846525545e+02
1.601777215978698621e+02
4.658104845373313196e+01
1.077331447932243123e+02
4.516645296953591071e+01
2.246738219478180554e+02
6.110070128143756847e+02
2.328503556373094625e+02
-6.221093191527783119e+02
-7.667774034395583840e+02
-2.651546406024962721e+02
2.905108656790076225e+02
3.780366724576416573e+02
-4.597936358092373439e+02
-1.156383537264577399e+03
-6.096992970259695994e+02
5.245349893281986908e+01
2.620264301583675319e+02
8.497435467571555137e+02
9.482432558897834269e+02
-2.150229145748655242e+02
-1.030310466268778782e+03
-5.193857519102431297e+02
8.582875124226048911e+02
2.129849098153375508e+03
1.262517122679314980e+03
-1.229574517821437212e+03
-1.606148251715742390e+03
-1.617815015038710840e+02
4.545063565102877590e+01
3.489207573751417044e+02
1.578811003417293250e+03
5.198896762872549289e+02
-2.358901652040949102e+03
-3.380314389922371447e+03
-2.187040493209890883e+03
1.996091232047026551e+02
1.915391933717701022e+03
2.311682606266759876e+02
-1.638621011791582532e+03
1.029588762919608598e+03
3.842831108691475038e+03
3.049403254025970000e+03
3.943666794581437898e+03
6.183790497299230992e+03
1.561654172396975810e+03
-7.291124111152661499e+03
-9.278607524072471278e+03
-5.056407567833853136e+03
-3.798574668360357919e+03
-4.441850576942348198e+03
2.293308477554398905e+02
5.921244018162773500e+03
4.587888128540733305e+03
2.580872268961228201e+03
6.553074232077124179e+03
6.942731527337566149e+03
-1.555068629383348764e+02
-3.299279842157230632e+03
-2.362862281542719757e+03
-5.695195316497188287e+03
-6.247661155617471195e+03
2.550414771684982327e+02
1.698149758612184542e+03
-1.733211061130974485e+03
1.245123021019629050e+03
4.315604889778750476e+03
-3.884564351356228826e+02
-2.265926293608811193e+03
2.629385427862610868e+03
2.632428083043911556e+03
-3.521456671628305230e+03
-4.686647362080659150e+03
6.772610217482708777e+02
2.754745295317635737e+03
-2.208786599135006838e+02
2.216032973489539927e+03
8.929914969231031137e+03
4.284797507198498351e+03
-7.156682828208447063e+03
-6.246336881335118051e+03
-1.399759752495976954e+03
-6.571096328363967586e+03
-5.465873975919743316e+03
6.143312497156420250e+03
5.602792710718503258e+03
-1.942533268977611897e+03
2.537537275142165981e+03
4.700466792233874003e+03
-2.454401533639553691e+03
8.857234658522919517e+02
6.779721148679795988e+03
-2.781508244977371760e+03
-7.976507191102547949e+03
2.998403288199081089e+02
-1.304299536372959665e+03
-7.557842110978464007e+03
1.708011435941023819e+03
8.930802383575301064e+03
1.065348479537544563e+03
-1.278226967181614327e+03
4.322278317567539489e+03
1.102725970731960388e+03
-4.936279445795415086e+03
-3.455297648056894559e+03
-5.675696217521558538e+02
1.365974649043828094e+03
2.927120408884952212e+03
7.024201564793627313e+02
-9.735852288894487856e+02
-8.213810928017932156e+02
-5.677132324521492592e+03
-6.956611624377504995e+03
4.084947247656866239e+03
1.018129108110679772e+04
3.229672824180947828e+03
4.490542680114357381e+02
2.174431644516999768e+03
-3.546676814865892538e+03
-5.866769198497895559e+03
2.551597135077646271e+03
4.946484723850604496e+03
-3.053090370988054474e+03
-7.599096442177036806e+03
-6.529093548077424202e+03
-3.799368227444308104e+03
3.349616581716462861e+03
1.116377034409710905e+04
1.047247512660202119e+04
2.370236578156599990e+03
-5.524160073425114206e+03
-9.253181994218022737e+03
-6.832020523261016933e+03
1.858567521449185506e+03
9.018268001114316576e+03
5.618270287978079068e+03
-2.105478136964885380e+03
-2.664955538923681161e+03
-2.127589159048575766e+03
-5.586722782310577713e+03
-1.242368708801731003e+02
8.854593938912110389e+03
-7.646268845221636639e+02
-1.305467085789837620e+04
-2.398643486041980850e+03
7.995353820217199427e+03
7.866389781334116833e+02
2.719072567885874832e+03
1.275343052351819642e+04
1.933602277775949460e+03
-1.302808433568056716e+04
-5.332192649582388185e+03
4.958442739755657385e+03
1.682717634211710219e+03
-6.372133179023255707e+02
4.733733290726630685e+02
-2.659202545972748794e+03
-5.693995164795332130e+03
-5.078317527623022215e+03
-6.573476772083699871e+02
6.446932847683703585e+03
6.938700548641402747e+03
1.073576346133695779e+03
1.795342594648860313e+03
4.883831821476567711e+03
-4.443071256094704609e+02
-4.551192180181760705e+03
-1.685717857263855194e+03
-2.680382164556739099e+03
-5.984006599409961382e+03
-1.969859075856617665e+03
2.665085730953747316e+03
3.602706147713811333e+02
-9.639612783452805616e+02
3.284812939182869286e+03
4.173538671454223731e+03
-8.432718381897177551e+02
-7.167104963169226721e+02
4.491491253595535454e+03
4.988132953733599493e+02
-7.265595181797264559e+03
-6.782565903863901440e+02
8.822691540526520839e+03
2.180560708275636898e+03
-6.167198155888408110e+03
-2.954133178185244105e+03
-2.381460808002944759e+03
-7.422095819542844765e+03
-4.528666666940524919e+03
4.701369357373185267e+03
9.776118963620847353e+03
6.510326132530353789e+03
-2.171649862653131549e+03
-3.244195058949675058e+03
5.407310562345883227e+03
4.474594065987522299e+03
-5.558510541181830376e+03
-3.636182893996334315e+03
1.974460209968787012e+03
-6.084634274265310523e+03
-1.073549130690833226e+04
1.109170620947128782e+03
9.952171941891128881e+03
4.589227449500896910e+03
-2.808425400251938299e+03
-2.898160398366544541e+03
1.679430872764130527e+03
3.324025221160175988e+03
1.147526717303020632e+03
2.394731423759066729e+03
3.747850126438941516e+03
-3.403885809530525421e+03
-9.628295959443990796e+03
-4.765580390422682285e+03
2.727494889555944155e+03
5.939977389373421829e+03
4.889830412594786139e+03
-2.025023635189239258e+03
-6.987434584798166725e+03
-2.819813610831760798e+03
2.125804063966885948e+01
-1.447473408526059075e+03
4.305343569753309566e+03
1.169330272270007117e+04
6.528709390391372835e+03
-4.321481534053533323e+03
-6.556840448528353591e+03
-1.188725410636460992e+03
-8.520293332487966609e+02
-9.292811058408346071e+03
-8.893080663389337133e+03
6.708208256072511176e+03
1.014336774988302204e+04
-3.437241589498462872e+03
-4.336949860085408659e+02
1.359523171005469703e+04
3.208888972284187730e+03
-1.300799582993042168e+04
-3.551493672684656303e+03
6.544198094007399050e+03
-2.640827108801530358e+03
-6.722713362611995763e+03
1.946628086078755587e+03
5.302228280688630548e+03
9.344731544052281151e+02
-3.013349422116416918e+03
-2.251144954350426815e+03
2.393188075531388222e+03
1.275323154994680408e+03
-4.233200117636571122e+03
7.174751282765384985e+02
7.541371787485860295e+03
-5.633158412089532021e+02
-7.653613275995478034e+03
-7.980119843090095628e+02
2.146590513539862059e+03
-1.517123611066803960e+03
3.490036449983283546e+03
8.374103535869713596e+03
9.399278582731077449e+02
-5.917242983859749984e+03
-4.669082471364359662e+03
-4.234732981014592042e+03
-4.097756813762568527e+03
1.263456069617148387e+03
5.792820757735034931e+03
3.912250675710755331e+03
6.360487075868808233e+02
5.196919307131267942e+02
8.444763117311935048e+02
-7.294385519055687155e+02
-1.343784235267689837e+03
-9.274014792511937344e+01
-7.354138169527066111e+02
-2.780192911445499249e+03
-1.964683675062983866e+03
2.709105426109688892e+02
7.373464778318078743e+02
1.084306908405107606e+03
1.941885109997395602e+03
1.404566116350361654e+03
1.462174321837732975e+02
-5.168103101649445534e+02
-7.091840919359208328e+02
-4.053489621466458743e+02
-2.607128410219980310e+02
-2.369013491361047272e+02
8.273448082650068045e+02
9.243086181884011694e+02
-1.345265972682102984e+03
-1.954437607819910681e+03
-1.138090993311052159e+02
-1.057433774086887723e+02
-7.117524475176767282e+02
1.169193784625638500e+03
1.994249793383080487e+03
-2.994765303529840494e+01
-7.432815228034161237e+02
5.122617054554295919e+02
8.652643600969568070e+02
4.688798637559907547e+02
1.963085923402325079e+02
-5.545631410623502688e+02
-1.358364193782344273e+03
-1.403908128837153299e+03
-8.707231345045593116e+02
-3.116595375226076214e+01
7.204375874064629670e+02
8.556466275759499922e+02
3.837914006905014048e+02
-2.014433524393460289e+02
-1.429939777228848925e+02
5.279098784295670157e+02
5.667202980629458580e+02
-1.075184386596745298e+02
-1.983586552403613723e+02
4.168204354631207309e+01
-3.091625727534101884e+02
-4.911716067444850182e+02
-1.826119363361655701e-01
2.369553893424395881e+02
-5.974437642400725679e+01
-2.688445103806362795e+02
-1.311066468438174297e+02
1.509711569536461582e+02
1.556391679471566647e+02
-1.619744701157891598e+02
-2.591906242447896602e+02
-7.810669888725601595e+01
3.593740188777520217e+00
1.217758052264425146e+02
3.194820549709439206e+02
2.410752805836908408e+02
1.097346959705075520e+01
-7.522829473363589159e+01
-1.341796980820716954e+02
-1.692178161139748909e+02
-4.858154028321630591e+01
5.458578889237815446e+01
-5.439088765976270423e+01
-2.206035702305445909e+02
-1.143588453414365347e+02
1.878623860617973946e+02
1.641337694305463515e+02
-1.174810219460743212e+02
-6.692734293210868657e+01
9.422838955932881788e+01
-8.515152625966624100e+01
-1.700234508219603811e+02
2.530624880893838835e+01
2.055981545951544831e+01
-1.198626003129290041e+02
-1.012367126570848939e+02
-2.289341495613183142e+01
1.522783332766138926e+02
2.941329449994427137e+02
5.925699257130726494e+01
-1.683882043327286056e+02
-4.976398069289250259e+01
-8.235189280104427212e+01
-2.391903861465329726e+02
-1.163711902863298064e+00
2.480062259420977568e+02
8.983649043077789997e+01
-5.106554024460002239e+01
-3.190056948321770491e+01
-1.284402415148184957e+02
-2.294020241549074797e+02
-1.674840366466330863e+02
-4.576386323964834446e+01
4.670899982108610970e+01
7.177022748543359398e+01
4.406268215369388486e+01
1.955041159427837272e+01
-9.732152305407669957e+00
1.313876686867837762e+01
1.119478137662238879e+02
1.483312454858323122e+02
1.181325220365000774e+02
4.513172423094246710e+01
-1.545484096047538856e+02
-2.458296617557843149e+02
-7.032953408113638716e+01
-3.341613956713726452e+01
-1.598060970149152524e+02
-6.692794222290137895e+01
-5.082017909498408414e+01
-2.789758495454139506e+02
-1.436041673810407815e+02
2.547015558528276244e+02
2.505025177287455449e+02
1.162829280644047003e+02
1.935954165052385463e+02
9.458067560835577581e+01
-1.302140515785281707e+02
-1.004883264320898633e+02
-9.413807657966113851e+00
-4.049979339889245722e+01
-9.376964289477490411e+01
-1.654666192347408185e+02
-1.136416389466965455e+02
6.905887240308521768e+01
2.005736461130659976e+01
-1.269068040207126700e+02
-1.960405619933614574e+01
-2.293236021560093008e+01
-2.372450670246123536e+02
-7.670471715788735878e+01
2.929445944606758871e+02
2.399358361256390992e+02
1.804362263203144323e+01
3.021314648538173131e+01
2.363302459810301670e+01
-1.176601307227630571e+02
-1.373381687003991090e+02
-6.471869289225182342e+00
3.912463442128429136e+01
-1.021400082619280596e+02
-1.907639462758860702e+02
-3.366317228286125385e+01
9.096566346211685072e+01
8.190883395711598070e+00
3.497423422841354324e+00
4.878826288984538451e+01
-1.255439101455442881e+02
-2.420219609132603864e+02
-5.954606576171799759e+01
8.874458108399043965e+01
9.140136330398486564e+01
1.401296081189947529e+02
1.255910545748283340e+02
-9.312215013117270956e+00
-5.512517865569034825e+01
-2.950521203601416786e+01
-5.319601246352110024e+01
-4.843568967989391894e+01
-2.018484137465976858e+01
-6.663805662080501691e+01
-1.054885096670576843e+02
-3.222906709638967016e+01
3.801229532381614717e+01
-4.924149787153442048e+01
-1.701595822062968750e+02
-1.139159937096616773e+02
-4.133677941102452991e+01
-1.252896888562755748e+02
-5.787940694290510635e+01
2.340007340075097204e+02
2.834817971652905726e+02
1.204705212646335895e+02
1.809740862088611948e+02
2.713695047541313556e+02
9.395093917919298576e+01
-1.067966632932963194e+02
-2.569453067256903864e+02
-4.894010996195183338e+02
-6.055241330568302374e+02
-5.022018091134171414e+02
-2.821563358516129369e+02
1.393516624527749457e+02
5.828515538536870508e+02
6.103346700932173690e+02
3.771242072127697043e+02
2.511303445382582993e+02
6.904169323366582489e+01
-2.333116003527309488e+02
-3.159357898585301996e+02
-1.700473122657213594e+02
-1.171000918734156642e+02
-2.006032202647300835e+02
-2.190122101293783601e+02
-9.255871624934124497e+01
4.146656604104094868e+01
5.479066655439781641e+01
5.192078114921196885e+01
1.190500424845775314e+02
9.760278335763828750e+01
-4.750087523211189477e+01
-9.441519830757606258e+01
6.143773370057171945e+00
6.970194576892565408e+01
3.304796625724047487e+01
6.127222331029862801e+00
2.829659507515100714e+01
-1.469429007112083241e+01
-1.521024594864545918e+02
-2.012791592423182578e+02
-9.560861196634823500e+01
-8.316687390953450887e+00
2.185489852448288417e+01
9.632043442051687521e+01
1.361443486576101520e+02
3.598541616519642616e+01
-1.019167060763936803e+02
-1.364435673281043080e+02
-6.554268792853726211e+01
-1.288885506445264539e+01
-3.511692012921264450e+01
-1.038096118972356052e+01
4.258061846672171669e+01
-5.239624559827392147e+01
-1.232941514340349869e+02
5.561672639869139800e+01
1.825399979172512133e+02
6.551168095609443753e+01
7.339644377747056581e+00
1.782533641582364226e+01
-1.301191370446410076e+02
-2.361910551611269966e+02
-1.380627199489278496e+02
-4.872630263652487770e+01
-1.291584324779204351e+01
4.759336011110393372e+01
6.090061845629477233e+01
6.794896727272210057e+01
1.015631833695094457e+02
2.528629773970776284e+01
-7.937129971152987196e+01
-6.486520458743508755e+01
-7.849812791174967685e+01
-1.454306208726285377e+02
-8.548992980910999506e+01
3.132768140415888780e+01
6.946685548477974237e+01
7.075455058746243253e+01
3.874251084409830526e+01
-8.772265756124895120e-01
-6.589853672122032435e-01
-6.326023950569994270e+01
-1.260856949128457103e+02
-1.787273290038427831e+01
3.333065622161494446e+01
-1.078069257179710689e+02
-9.345320335072590012e+01
5.265823829261306344e+01
-2.897571139323147094e+01
-1.096617943415994887e+02
6.860358071582442108e+01
1.299314790058795666e+02
-3.844905516418956637e+01
-6.563030038769090879e+01
2.676629186148137762e+01
2.554135503668717888e+00
-3.072314489345205857e+01
2.536305687836527767e+01
6.056623946178703477e+01
4.063800451528766899e+00
-1.315498182945220549e+02
-2.066850767785713003e+02
-1.007637887967540564e+02
-1.760611243545686833e+01
-8.665993111197633425e+01
-3.649917574797171937e+01
1.448803405071160171e+02
1.208455014109904653e+02
-9.529783639858752764e+00
4.629536838833600854e+01
9.592896825583716236e+01
-4.576495792442727861e+01
-1.367968661052583741e+02
-4.955152539424279468e+01
4.551868180460833457e+01
4.124016642634342134e+01
-3.649437619447358827e+01
-1.196723672708634183e+02
-1.787591426141826503e+02
-2.381125549973378668e+02
-1.806136103396878525e+02
9.138349781956979712e+01
2.996725272854363880e+02
2.286580163776293091e+02
9.799848511892439262e+01
-5.136232932065528445e+00
-1.857072927162397207e+02
-2.236788516917622474e+02
-1.454685664691350055e+01
8.324590487337233924e+01
-5.276849692346463172e+00
-1.569873619527491115e+01
-9.849427743231313315e+00
-9.453967130582310574e+01
-8.651135616383669458e+01
2.504513948216685293e+01
5.323796436787929309e+01
-2.290582979157725418e+01
-1.160466634477172221e+02
-1.061189097546322699e+02
3.695080490216330560e+01
9.537104039241917519e+01
1.704266492571976244e+01
2.040978961199109776e+01
8.422291743104253214e+00
-1.684096483609486938e+02
-1.972851493047519966e+02
1.369676643862382548e+01
1.079375513742021440e+02
7.693774738309060979e+01
1.021716868696125715e+02
5.820914657944561554e+01
-4.136112743582205553e+01
-3.625753178799430998e+01
-4.344611461822364618e+01
-9.606572768189897715e+01
-5.962541525546936327e+01
-5.306189731590612269e+01
-1.388330962237887718e+02
-1.422098976482232047e+02
-1.015799407908178296e+02
-1.072164154945693895e+02
-5.721181221649946735e+01
8.016794155459425752e+00
4.580413106104384724e+01
1.914809103852450107e+02
3.332095172693223049e+02
3.108284569894318565e+02
2.962259719613455786e+02
2.563157604822218332e+02
-4.447760384304191206e+01
-4.088168190232227062e+02
-6.017844830056131968e+02
-7.150040709248773965e+02
-6.482074964892822209e+02
-2.846039692048632901e+02
1.088142914540649713e+02
3.986088628427880849e+02
6.278731294214748004e+02
5.934146021796229888e+02
3.104238795768193313e+02
1.432982984393563015e+02
7.959474741060552105e+01
-1.020771246937678001e+02
-2.564914357658537938e+02
-2.591791382101885119e+02
-2.741138322040138178e+02
-3.385754906290393365e+02
-2.997100829081689994e+02
-1.162407796443350634e+02
6.187218169764913966e+01
9.076033855689955487e+01
6.760967690146814846e+01
1.211328251074462372e+02
1.134683863058862698e+02
8.285608246242325947e+00
2.726155311126606762e+01
1.198532813323012363e+02
7.396392302571213406e+01
2.805063686087773789e+00
5.027507109941520724e+00
-3.866191131893207000e+01
-9.014295202311681976e+01
-8.901526765041997180e+01
-1.118162463403294424e+02
-9.544840515392687053e+01
-4.185536713383638130e+01
-1.130521027417915434e+02
-1.577720370827340730e+02
-2.916594904431547874e+01
1.042928598244046157e-01
-4.558805387090649219e+01
1.424851840379845953e+02
2.778125930505842689e+02
6.752323567267038129e+01
-7.548241157289764658e+01
-3.089254716961818303e+00
-7.833757667265574298e+01
-1.869633729415606069e+02
-3.994339509345027750e+01
1.014423987026007694e+02
3.454105741158781484e+01
-3.636911861339719110e+01
-3.579174221668802858e+01
-4.380627148462784248e+01
-5.702348235636794982e+01
-8.336121655037466383e+01
-1.017296778398940944e+02
-6.303381799871856117e+01
-4.225596341617241336e+01
-5.196523313278086675e+01
3.869846963320976840e+01
1.811697805407526971e+02
1.801386820725452083e+02
2.991569962144829020e+01
-1.090045219473578726e+02
-1.445749091292859134e+02
-1.403268511521212076e+02
-1.460925977544042667e+02
-3.123447697043253157e+01
1.922830186046257381e+02
2.003152465930513131e+02
-1.140680786256479706e+01
-6.366483558703776424e+01
-2.244716599487651720e+01
-1.680544357280185750e+02
-2.301813061367961950e+02
-2.834433217611335110e+01
4.390561584404066764e+01
-7.498073787862028894e+01
-3.427990518748162430e+01
7.499610827759968856e+01
3.655665042412896071e+01
3.240900961403688996e+01
9.929447601446234728e+01
4.706558952345320535e+01
-2.640912646124312246e+01
-6.280855051210888718e+00
-3.521677574805205779e+01
-1.035175337989049922e+02
-8.270068783214965435e+01
-7.007457440245889302e+01
-1.273111434617030113e+02
-9.780010638025169101e+01
4.391780589696535486e+01
1.256095604684245757e+02
8.211814338955915105e+01
5.924095645606765714e+00
-5.199072278532153746e+01
-1.329174402259708643e+02
-1.860115329833342059e+02
-6.771714598890847014e+01
1.300103230394720981e+02
1.461396122173816821e+02
3.211388011948200472e+01
1.068881519264063229e+01
1.315698325727112561e+01
-5.442459445677859264e+01
-3.978059258454875646e+01
4.060582972817607583e+01
-3.862905063776811687e+01
-2.130170633170677377e+02
-2.210537500947475280e+02
-7.147768834841453156e+01
3.996841692192730022e+01
8.158728390364854022e+01
1.356316495280111383e+02
1.189801230302541626e+02
-7.365452918146249317e+01
-1.988677301268510007e+02
-2.398443219787838387e+01
1.384546350691141470e+02
3.408047893956797481e+01
-2.621445935872088384e+01
2.613590969261718655e+01
-1.195830148605299996e+02
-2.466177152605531546e+02
-4.131282936043373155e+01
1.186862065631450207e+02
3.137501866402304884e+01
3.924443281292678876e+01
9.193613496760582393e+01
-1.848454598805105320e+01
-4.745488292848622081e+01
-5.410771935709121294e+00
-1.613298242824207023e+02
-2.528817610140726799e+02
-9.550681192383935070e+01
-3.155573176735306973e+01
-2.849182293310026637e+01
1.616884360056602361e+02
2.264822256872781452e+02
1.049189204521946905e+01
-8.395999613471974499e+01
2.177515690928471059e+01
7.967472637031970351e+01
9.161671131481656971e+01
7.652295231020877964e+01
-1.730214567158999728e+01
-1.260141641204039615e+02
-2.547973786945205745e+02
-3.400276908371351965e+02
-1.867110203829214754e+02
-2.914007046307002469e+00
-7.850761361076087042e+01
-1.022284019261355041e+02
1.086555855253401006e+02
1.728430595244148549e+02
9.199036620418318932e+01
1.920406569348229198e+02
2.833718622220775387e+02
1.658510225849391304e+02
9.432061576088479171e+01
1.155652377604350249e+02
1.543785600482485165e+01
-2.045352036020664173e+02
-4.764983774333036877e+02
-7.083781232901176281e+02
-6.688355375945434389e+02
-3.509383335776842046e+02
4.152943272216648296e+01
4.703370410763980658e+02
8.002384435214061114e+02
7.203229609325210276e+02
3.163673696460194833e+02
-2.550696054618836328e+01
-2.113027304789356151e+02
-3.310041290002133678e+02
-3.457812069713576193e+02
-2.308465305876089531e+02
-1.090446191953772370e+02
-9.969987104874249439e+01
-1.219077353380270381e+02
-2.274821617145947172e+01
8.581648534432298447e+01
4.291720066988530391e+01
1.682037203476000897e+01
8.651671399850258126e+01
4.794733905659265361e+01
-8.767910938179976910e+00
9.092001286105431745e+01
8.400706768923402024e+01
-8.891969384968115264e+01
-9.998046676375213337e+01
-6.394575465630052236e+01
-1.824277591079117542e+02
-1.192860156320136440e+02
1.317522305041381969e+02
1.164409061383600914e+02
-3.675225334109855169e+01
-6.392943404186734568e+00
-9.856011219267756474e+00
-1.020464188352585069e+02
-4.416859170393241385e+01
3.539782604878906369e+01
-1.851856398965974648e+00
-3.161666885645845326e+01
-9.994067059565142586e+01
-1.648907859998072070e+02
-1.302635486613139193e+01
1.300008319262699388e+02
3.341189990759036732e+01
3.223649833855905200e+00
8.285242615620410334e+01
-3.352893218485702675e+01
-1.547383941793341364e+02
-2.114913102994518468e+01
9.302657283960945733e+01
1.471711727036347739e+01
-8.898567848651430268e+01
-1.216623395423615932e+02
-5.196977131661638083e+01
4.619383872314412542e+01
2.753174290260442092e+01
1.911545930783595892e+01
7.376078845399166539e+01
-8.223638547732909387e+01
-3.026111663581638140e+02
-1.675481032400022627e+02
8.039618066288400655e+01
9.025375597798664273e+01
9.760243233878316005e+01
1.732483972239953403e+02
7.506611190967838354e+01
-8.354591337508539084e+01
-1.238108258776468205e+02
-1.214405194738825173e+02
-6.669082749427609258e+01
1.249346185728386871e+01
-1.410918228430742261e+01
-2.338306225735124855e+01
4.844448703759253760e+01
-1.555553641053486658e+01
-1.448301839109772118e+02
-1.052696659033620961e+02
-2.416132745936089066e+01
-1.145394485297224207e+00
7.029879504754981667e+01
1.013824287888182312e+02
3.201624372103467664e+01
-2.297538387909906277e+00
-3.725821380077930201e+01
-8.676303724038172049e+01
4.722005174825941509e+00
7.836778758764239683e+01
-7.120836045028953265e+01
-1.773995189175596181e+02
-1.056283477989454269e+02
-9.478068556405243328e+01
-8.255964618460068039e+01
8.789123342248130655e+01
1.720948002285317102e+02
6.785905524342959438e+01
8.153956434589346713e+00
-5.831149552433785743e+00
-8.184431262298160448e+01
-9.913936020057184351e+01
-3.641608574854873837e+01
-3.116995215423021648e+01
-4.730067775152228648e+01
4.337266283317827487e+00
6.074372730589460900e+01
4.448500498501685740e+01
-3.642697052440182404e+01
-1.029296639912096651e+02
-9.371847717510662790e+01
-7.985570682970407574e+01
-8.671334020338795767e+01
1.081340121157990097e+01
1.288887138147615019e+02
3.401620899749046600e+01
-1.050997886935664667e+02
-9.248960926601743182e+00
9.761355435658695967e+01
1.288503474304718566e+00
-3.153538865447351114e+01
7.143242521588717864e+01
1.188509847291279442e+01
-1.413137781157169570e+02
-9.914072580546124414e+01
-5.794117499142522831e+00
-6.260531177935017411e+01
-1.145777144589696093e+02
-8.042454019670832110e+01
-4.597998855220214409e+01
2.056757170650862676e+01
8.543842781644931961e+01
4.560978001626729395e+01
8.973290174488745663e+00
5.669753730291894556e+00
-1.032880116494950613e+02
-1.351800305793613290e+02
8.641213474704638031e+01
2.054143798164129180e+02
6.783036015309652100e+01
2.925737622886860478e+01
4.817416891075356489e+01
-1.542846699124675922e+02
-2.833319578844088937e+02
-1.242294641525488998e+02
-4.552396299617804232e+01
-1.128921647005438587e+02
-3.646273790760302091e+01
5.311852752326343818e+01
-3.175642125884701272e+01
-8.159576518920249555e+01
-1.308350296753480535e+01
3.317603744910509533e+01
7.312078907381673787e+01
1.397142435487374996e+02
1.768148531262933432e+02
1.916949473585871999e+02
1.639662703902306760e+02
6.489390247693135905e+01
-4.437305562553326865e+01
-1.899878332020607559e+02
-3.992566645743872868e+02
-5.231303207474849160e+02
-5.017575205480133036e+02
-3.553240073731728899e+02
-2.474611845127206777e+00
3.845883117482510443e+02
5.009500278065339671e+02
4.795908245497080316e+02
4.262105458860937119e+02
1.137822864774690004e+02
-2.147601638716507466e+02
-1.509876404584821898e+02
-5.339589728161380577e+01
-2.077145038575806666e+02
-2.344696326931690180e+02
-1.426530134152856704e+02
-2.352565960638176819e+02
-2.454027396946007400e+02
-3.588610444956339052e+01
6.901924736781963077e+01
1.179840700688128408e+02
2.221016366428561355e+02
1.385053048288463060e+02
-2.317623239996855489e-01
4.443701202310636234e+01
-1.513843128062006116e+01
-1.662392855258160012e+02
-4.759599582990317401e+01
8.858277773217196227e+01
-7.170679386019074286e-01
3.318245809932196977e+00
2.547493285068281210e+01
-1.763022811192818153e+02
-2.287471139856308184e+02
-4.480197602488193809e+01
-8.016642602383804217e+00
4.709014572047883007e+01
2.442151607582237034e+02
1.185301276262363075e+02
-2.135281205607075208e+02
-2.114969841716736880e+02
-1.011186625653683109e+02
-1.465606889177010999e+02
-2.271730892414841207e+01
1.976323852672888961e+02
1.497277259566902501e+02
3.590769208665324186e+01
6.369168148694627973e+01
2.861267517882808065e+01
-6.982784262814163867e+01
-7.782169544256001359e+01
-8.370954877425472773e+01
-1.313783081906787231e+02
-9.873896722809216442e+01
8.244584391193974682e+00
5.098888973084822140e+01
-1.595120304084298368e+01
-6.144496720601046036e+01
-1.882169522199412981e+01
-5.241677936437993424e+01
-1.330527113618555290e+02
-1.027919942161158673e+00
1.478733543706000262e+02
9.659674529682011013e+00
-4.743498586967886865e+01
1.666115993605012591e+02
1.399125944179052112e+02
-1.089122181123102138e+02
-7.689540498100620880e+01
-2.890086433190369064e+01
-2.715011974514200688e+02
-2.841760694144082322e+02
5.358629855174214640e+01
1.696333057238262825e+02
7.191172783467418128e+01
1.007772122122263738e+02
6.784728901217866337e+01
-1.335427282403246636e+02
-2.088326349684130037e+02
-1.157989943912903072e+02
-1.556037066670013047e+01
7.866680683788828787e+01
1.158890426527574391e+02
6.353495196731020656e+01
3.302286283242393949e+01
-1.955308733993398107e+00
-1.105737228211461201e+02
-1.298167736062477218e+02
-1.525767875374396354e+01
1.499324011073915486e+01
-4.674747847842643012e+01
-3.924341199301661476e+01
-4.283297021610928823e+01
-1.293629549078646619e+02
-1.093575763094474951e+02
5.056810236168587380e+01
1.281298807853595747e+02
1.067449008800714125e+02
1.122115590637370275e+02
3.580403335837283407e+01
-1.666212761573044361e+02
-2.112784179263281885e+02
-3.367687729943128971e+01
3.681045749993800342e+01
-5.005841022576260713e+01
-1.813951516488083371e+01
7.364918289353499858e+01
-1.384807405381954482e+01
-1.080583900049822290e+02
1.077022599515284895e+01
9.760448383834439312e+01
-5.586923288095270834e+01
-1.885201947729843823e+02
-9.833075397647412785e+01
1.966890565562009030e+01
3.717246580482028406e+01
7.822873931184324192e+01
1.328627908836354550e+02
5.096133556025859690e+01
-1.110403608966601041e+02
-1.710945469828843670e+02
-9.922925195523734487e+01
1.587562974119428105e+01
7.527467667262641271e+01
3.032498104007066075e+01
-3.529875988934399800e+01
-4.294691325874995158e+01
-6.185357783767038597e+01
-9.318315043676489040e+01
-3.134962876034284562e+01
4.156596411428756710e+01
-1.207363896370229028e+01
-7.364629554609230411e+01
-2.465681460704876926e+01
2.473722930057955338e+01
1.518500438416027976e+01
1.325005110754392135e+01
2.912872531361067274e+00
-4.384823499845226991e+01
-6.548705643889516637e+01
-3.341978529487143135e+01
2.909334655519826640e+01
9.733365122569549044e+01
1.063894862075418075e+02
2.439810974334351101e+01
-5.859446274924489728e+01
-8.503542186753062992e+01
-1.358025508438836084e+02
-2.261844909488446547e+02
-2.249056931773570511e+02
-1.347525662475306660e+02
-1.139190505447556490e+02
-8.629051668484702020e+01
1.371677753186708344e+02
3.447526980926492115e+02
2.788161110579351885e+02
1.973560544155529897e+02
2.705188324072437354e+02
1.826381766255246930e+02
-7.689265266383371511e+01
-1.723916168772985600e+02
-2.293352177040744664e+02
-4.729782458199758253e+02
-6.255280575714209590e+02
-5.033321243993376015e+02
-2.599416968235867671e+02
8.650161275986903320e+01
4.596957205159757223e+02
6.026694532721247697e+02
5.304068784113401307e+02
3.549494267344111904e+02
4.237808185242212744e+01
-2.122185001744857402e+02
-2.193077646502289326e+02
-1.874494888035130771e+02
-1.927304542329795822e+02
-1.171393311033623235e+02
-1.263829854221532116e+02
-2.210450406840059259e+02
-1.235176363269456346e+02
-1.716809622845048366e+01
-1.018422483270196324e+02
-1.158018533993137567e+01
2.317513605828179379e+02
1.604342928807772637e+02
6.382311479907407659e+00
1.428507178153616337e+02
1.809300225540389704e+02
-5.358698893102611294e+01
-1.418469298480646330e+02
-7.160998507951214265e+01
-1.005827244564227954e+02
-1.196424915175410035e+02
-6.047104654644057575e+01
-3.041974210583371274e+01
2.096301788285366996e+01
6.006363189225275789e+01
-3.707477686030688346e+01
-1.100442273515908909e+02
-4.204015357573518941e+01
-2.719999388594573730e+01
-8.586717439097185434e+01
-1.885662731821013338e+01
1.278055090796136142e+02
1.416980651960326441e+02
3.788572790149974168e+00
-1.092881014211262141e+02
-7.925655636449231167e+01
-2.589620200054507748e+01
-6.754096859385307994e+01
-4.359941685975125836e+01
1.084499783568174678e+02
1.102113138599289783e+02
-7.688219016416258000e+01
-1.325415450284280325e+02
-4.452218365954557555e+01
-5.136985546569526662e+01
-8.381593909460131897e+01
-3.142775454273767366e+00
5.397363655147143646e+01
1.247201313021715663e+01
-8.633848190485512220e+00
-5.854128830590674681e-01
-3.329271905690002598e+01
-6.266449016989648158e+01
-4.298564139792304672e+01
-1.117900466945872040e+01
9.320527442565783360e+00
2.078586969772393545e+01
1.202920784011766031e+01
-2.632682224626505274e+01
-7.957280183733494994e+01
-8.057044855466757838e+01
2.485756725753111596e+01
1.249069067217697864e+02
6.265758955727517332e+01
-7.827374241840790603e+01
-1.308598043516792302e+02
-1.518502105996240346e+02
-1.892348576838292331e+02
-6.995351350719855077e+01
1.978178992672776531e+02
2.858612111534133078e+02
1.016203880618132445e+02
-7.659733576940891453e+01
-1.329278754932608422e+02
-1.849442361343534458e+02
-1.886946536738862221e+02
-4.104957795460268244e+01
1.062987676743229883e+02
8.368729191468682416e+01
-1.263848256170280493e+01
-4.859896140861937397e+01
-3.272822609037763897e+01
1.826719690377267469e+01
7.269162145276909825e+01
4.739733895187426072e+01
-2.252485949751847372e+01
-4.868796809916023705e+01
-9.945958709196503378e+01
-1.812764796202060325e+02
-1.128885106948752224e+02
6.107568423357729159e+01
8.211164224132481593e+01
8.539309529183363168e+00
4.724470239220143242e+01
6.319756856759423158e+01
-7.780365480627116881e+01
-1.515067721053210619e+02
-5.256571720443224649e+01
-4.681010358540092398e+00
-4.990912204860852341e+01
3.286147084010078601e+00
9.738192203547066583e+01
3.403110722428736068e+01
-6.602262287953726627e+01
-1.077192774976905199e+01
3.563366736338633700e+01
-6.189768846388113133e+01
-8.424282193233023008e+01
1.278373426665127255e+01
-2.172122520908296295e+01
-1.059033320381654448e+02
3.335119749037769310e+00
9.036792783336775869e+01
-5.169036239591996917e+01
-1.391348153826721443e+02
-4.236131510477186168e+01
-1.620037676223786605e+01
-5.538446321201984546e+01
4.984225604014775968e+01
1.710048021537772343e+02
7.727639276821122394e+01
-1.069290953125991734e+02
-1.296787378237463884e+02
-3.650953335624312501e+01
-3.593964003385232786e+01
-6.863747433781375662e+01
3.517371833581432838e+01
8.668265194818434338e+01
-8.542403859606454830e+01
-1.475301208855754851e+02
6.164946829268042450e+01
1.446860418198662614e+02
8.061833858720035551e+00
-1.934016892824131517e+01
2.165310494770867678e+00
-1.362103068937800003e+02
-2.158733576291269856e+02
-9.563108933598167027e+01
-8.657068353627398238e+00
-4.467322034632412908e+01
-6.815283036858789956e+01
-3.413929956452625447e+01
2.586809333916362519e+01
9.984529405446835426e+01
1.968354190365246552e+02
2.988357606864846048e+02
2.910026571942478881e+02
1.365018884357549211e+02
-3.508336765073278229e+01
-2.277732158800417039e+02
-5.023396746754436890e+02
-6.457800824896806944e+02
-5.281088158901518455e+02
-3.321601118147625584e+02
-5.300007016464500964e+01
3.948446626288883294e+02
6.856533938247538345e+02
5.964500778150745646e+02
4.021453685784969707e+02
2.265084073665627500e+02
-6.287033303723865174e+01
-3.051239068955347307e+02
-3.174161356460763841e+02
-2.953349246834119413e+02
-3.527178909649197180e+02
-3.091026310620295590e+02
-1.354174167639761492e+02
-1.959670947422118559e+00
6.106140318916386889e+01
1.347705548710540882e+02
1.809725885328919617e+02
1.149028591155001777e+02
2.109739116196803010e+01
4.280281140208900581e+01
9.954948206964313329e+01
3.209916578687478506e+01
-6.835465864436095274e+01
-5.722018174924950529e+01
-3.087466467256005487e+01
-6.929076901977911973e+01
-5.725182890301431371e+01
1.480594604815852833e+01
-6.842745720917012164e+00
-1.328084745475288742e+02
-2.027703214281341957e+02
-1.370802986252016069e+02
-3.253557397520896188e+01
-1.096008296450513342e+00
1.174115239056368765e+01
9.851055720596660592e+01
1.548502823675502214e+02
8.357268936021735328e+01
3.031980091714605763e+01
5.623173986798715163e+01
-5.195529358182472635e+00
-1.242345713339284430e+02
-1.030288703476985859e+02
-1.482764620601589556e+01
-1.552367022456990853e+01
-3.405783854112403475e+01
-5.910144921252241090e+01
-1.727366972208516813e+02
-2.180469224871656593e+02
-6.355592868738489898e+01
8.259686919545588069e+01
1.055878695175515247e+02
1.571321890435984869e+02
1.828719698589480913e+02
2.221150268620309731e+00
-1.839800821530844246e+02
-9.195851874626775668e+01
7.812709863876540339e+01
1.981196744809598442e+01
-1.033777334742150344e+02
-4.460981852401111780e+01
7.774691319770507647e+00
-1.246373526458961294e+02
-1.667703785436021633e+02
3.496480457552471677e+01
1.283329887157928226e+02
-4.471093153002752985e+01
-1.252918275424055281e+02
1.756849139674570281e+01
6.464014730973663347e+01
-4.441650754869796458e+01
-2.536832832994319631e+01
1.097791363183981019e+02
8.496962615961967913e+01
-6.644621220022195018e+01
-9.045843500339546495e+01
-1.475243193520638485e+01
-3.729491305353134578e+01
-1.105236439133002477e+02
-8.540569695633641345e+01
-2.157053983995576374e+01
-1.231905355567445426e+01
-1.124100984343807852e+01
2.960550964366426285e+00
1.597456510199174318e+01
5.788698204557867655e+01
6.496202092729797073e+01
-2.896464131629180372e+01
-7.717208873306890382e+01
-2.335809326923117624e+01
-6.096627506073991754e+01
-1.472715696262430356e+02
-3.975475122659817373e+01
1.090986856849013975e+02
2.944928174138615873e+01
-7.861869010850351458e+01
1.464352226346640862e+00
6.180038660843302978e+01
-1.362171015810760721e+01
-3.749967234442021891e+01
1.061456584651322999e+01
-2.490376908617491480e+01
-1.202517574777874785e+02
-1.362160760104832207e+02
-3.367007307114815973e+01
1.043598108447523458e+02
1.340771250514845292e+02
2.735845585828698745e+01
-7.302487730528424947e+01
-1.239239239779705883e+02
-2.060005417301371438e+02
-2.195936940637963914e+02
-2.564981464708950654e+01
2.038481858097279655e+02
2.362358534131051329e+02
1.428858724879936233e+02
8.872657451332364076e+01
4.795221358052405236e+01
-7.433966746435098116e+01
-2.180520566173562713e+02
-2.133464298056091479e+02
-8.111550908690837502e+01
-5.385268710942134618e+01
-1.247375721906392698e+02
-4.960423832902642971e+01
7.782606819672733423e+01
-8.710872925765070107e+00
-1.239613445438363328e+02
-8.121723525151708145e+00
1.262537048189325759e+02
9.685097613172274578e+01
8.059250359655456464e+01
1.277433620391976064e+02
8.942399807130544787e+01
-2.463218960486895170e+01
-9.293875472518179492e+01
-6.646742131617084226e+01
-1.097405507206246611e+01
-5.386232171922857503e+01
-1.549922857821184721e+02
-1.676662085813918281e+02
-1.711352297649744401e+02
-2.321668942814239074e+02
-1.624010242232832013e+02
4.354234470845920413e+00
3.339548496529553745e+01
5.619794583853276038e+01
2.141352280594120714e+02
2.696868007415059765e+02
2.140555647825866572e+02
2.834873543711566981e+02
3.172289707069708697e+02
1.140542023161109739e+02
-1.187582865771182838e+02
-2.850460065589882106e+02
-5.031529218961192669e+02
-6.596135585649883524e+02
-6.006681536410260378e+02
-3.846658961020833658e+02
-6.797227428137549055e+01
2.855822959891189612e+02
5.298672880006697596e+02
6.117891806344414363e+02
5.465930919083144772e+02
3.282884944502430358e+02
3.513292002738421616e+01
-2.039125270970272936e+02
-3.163352054712308927e+02
-3.018967603055573932e+02
-2.616360773376414386e+02
-2.407227830078369095e+02
-1.379306454042986445e+02
-1.318053127083857845e+01
-2.784299564289466389e+01
-5.393676700297680071e+01
3.001869891575579175e+01
5.702870444589599686e+01
1.538211133500053407e+01
5.033890758294794665e+01
8.379019262112571198e+01
7.722481020664694995e+01
1.167810475586312435e+02
8.796996235388076002e+01
-3.389295187364913886e+01
-5.556544910553646588e+01
-5.411349086403033937e+01
-1.454883025842151767e+02
-1.226508143700061737e+02
4.757683979493052107e+00
-3.553089060568780155e+00
-6.148401478248376151e+01
-7.416862990628294483e+01
-1.423362912792903501e+02
-1.295417889295624718e+02
2.466113256414141119e+01
6.552808746110036964e+01
5.966103940069103828e+01
1.747353609343147411e+02
1.209818663663132554e+02
-1.202919377100939471e+02
-1.251868116418978900e+02
1.382782223471540917e+01
-1.905690840465130265e+01
-2.763162463470721875e+01
6.551706958900419409e+01
9.481958051919772146e+00
-8.680354612818774740e+01
-4.459918951059814418e+01
-4.265947459948936427e+01
-9.459993568368244610e+01
-4.994617526805023999e+01
-4.192155025239408417e+01
-1.284058489607714648e+02
-9.728444131125436911e+01
4.145632315587837979e+01
9.856000554208318931e+01
9.205057170286059431e+01
9.924523886209962598e+01
8.873567630257420547e+01
3.973286778107200945e+01
-3.882688622229115083e+01
-1.095994214734685102e+02
-1.121722313273978386e+02
-9.056218716007577996e+01
-1.225528974451982549e+02
-1.269403159760788213e+02
-2.141089668151091985e+01
7.281372841333069346e+01
4.482822217022417277e+01
-1.478101786992202094e+01
-1.404495994801649417e+01
9.356089027453933227e+00
2.947152635434188639e+01
5.017729734316547763e+01
3.326276737404047878e+01
-7.859051924430339398e+00
-3.854455255534736580e+01
-1.161594243045635864e+02
-1.750958387865408667e+02
-4.065251263464850240e+01
1.166168275254847799e+02
2.723095220582646547e+01
-8.539661474442965527e+01
-3.089508612340903682e+00
9.951630527627681744e+00
-1.016966920728948907e+02
-4.281564314025557394e+01
1.012298557244801884e+02
6.820956949592438434e+01
-4.430318877230499908e+01
-1.120897713845782562e+02
-1.324798344168837048e+02
-5.016141210592665800e+01
2.897968030005282714e+01
8.306626437195010482e+00
8.044200074512374954e+01
1.900201265248513209e+02
4.559722547966288886e+01
-1.368889447548711473e+02
-8.646125845160506174e+01
-8.730283978648631660e+01
-1.971217977982056482e+02
-9.832236613581370932e+01
5.895147613139489806e+01
2.221425658663690328e+01
9.914262607740170097e+00
5.610601904211927149e+01
-4.986344705220878382e+01
-1.133810729284452918e+02
3.067283814006638565e+01
9.782748307114675868e+01
2.275936274962234762e+01
4.730918622850795430e+01
1.004556878583553043e+02
-1.418993290380117855e+01
-1.596531050858662013e+02
-1.416064289792273030e+02
-5.034769606360199390e+01
-6.103624395122249524e+01
-1.191370488365152482e+02
-5.680923049621913634e+01
5.486215507983486361e+01
4.067004308120864664e+01
-8.045783164907170715e+00
3.180913562171555142e+01
4.587361471758980258e+01
-2.278298233213419621e+00
-1.877391828259875695e+01
-3.052522718894732279e+01
-2.751229022627701681e+01
2.625746122363624480e+01
-2.233500456831594150e+01
-1.348549034784003311e+02
-3.977585396170130849e+01
9.418288707415800332e+01
-2.479558904206142955e+01
-1.003507251908088875e+02
4.868506685292773284e+01
5.127542671304237132e+01
-9.033251281140996980e+01
-2.626233037366901257e+01
7.707759953396342212e+01
-3.354760424143643149e+01
-1.594589543373678566e+02
-1.985360163085277350e+02
-2.193545503594679076e+02
-1.092993551889178434e+02
9.777324802854835184e+01
1.990898181347800744e+02
2.479173079155460471e+02
2.896800219487602703e+02
1.810169296608073921e+02
1.541166060033712526e+01
-2.301029757141544252e+01
-6.134491663439140297e+01
-2.352369683906522653e+02
-4.401665360571761880e+02
-5.279215733816596412e+02
-4.133197010206546906e+02
-1.468194773267765072e+02
1.454205915336856947e+02
4.474426351892238358e+02
6.284575519123172853e+02
4.403736455656419935e+02
7.657896156802105736e+01
-9.575016208083222580e+01
-1.905736321042735426e+02
-2.952155644627887341e+02
-1.880239871982606132e+02
-4.365962495413597821e+01
-1.352644268796618690e+02
-1.612658908441326844e+02
5.555555079218159165e+00
2.107737631267559664e+01
-3.718332443963338818e+01
7.460856282541796247e+01
8.060211398583243181e+01
-1.010899918467830219e+02
-9.013444246765772050e+01
7.951503614650253837e+01
8.969002663493910177e+01
3.767978864203382727e+01
6.756058329893718906e+01
2.709691726485951335e+01
-1.019382935639185916e+02
-1.373262479670676726e+02
-5.242630628884734278e+01
1.422803146559945375e+01
-1.292074155922457379e+01
-4.852273271244945363e+01
-1.363014796718026034e+01
-1.880416350404890835e+01
-1.150737845909215480e+02
-1.057515057673881245e+02
2.507575250536709888e+01
1.837956501565276923e+01
-6.063691133525958321e+01
7.311963337364664994e+01
2.205662185542319946e+02
5.578757586391921564e+01
-1.498996449786825451e+02
-1.014219820633780671e+02
-7.802593523306941847e+01
-1.921650062156695640e+02
-7.930050357272853034e+01
2.101900503029440017e+02
2.180612376319054420e+02
5.473797741768031244e+00
-7.604705660859127647e+01
-1.003988016238176897e+02
-1.937006666588323469e+02
-1.828767978598950776e+02
-3.643915903961763547e+01
6.729418218358352988e+01
8.273616243259155567e+01
5.664917239775981272e+01
1.951630344674951800e+01
1.584455680837127645e+01
3.261765902112907156e+01
2.186830972900055059e+01
-1.946632426292300622e+01
-7.982656366301119988e+01
-1.083640882636224774e+02
-8.402911559995392565e+01
-9.459710761754179487e+01
-8.938728805950555056e+01
5.670527050435565997e+01
1.375124426451699264e+02
6.889778016855778731e-01
-5.569342635357042326e+01
1.895428859815298495e+01
-7.475614511173827736e+01
-1.616654895761336661e+02
1.918970640385185078e+01
1.276510866635987327e+02
1.919296267449231408e+01
3.227767814607440044e+01
8.550476701790594802e+01
-7.082744447888569539e+01
-1.551242308820036726e+02
-3.551442138357784017e+01
-3.836073842015293422e+01
-1.374707401621632812e+02
-6.394148746383727655e+01
3.189726294623343961e+01
-2.360273195951581116e+01
-4.216916638545255580e+01
4.569048082935610466e+01
6.332629120367041509e+01
-5.499696156836755279e-01
-1.637492495383658309e+01
1.857488319830987322e+01
4.802490881890610552e+01
6.015108992395502696e+01
2.535185147865788480e+01
-5.670759370383495934e+01
-1.097059194293291853e+02
-1.277011222047629246e+02
-1.599260898774348050e+02
-1.325290513054026178e+02
-8.552581401054421661e+00
6.294810286252081255e+01
4.498795781808870231e+01
5.426089234471476885e+01
5.293890872573507522e+01
-8.643513107407734708e+00
-2.465992732952202005e+01
-2.011468184583695873e+01
-6.551197277770134519e+01
-2.970639215309552839e+01
5.732001952268387868e+01
-8.441946007582544098e+00
-8.945185479187537680e+01
-1.340741283673754225e+00
5.029955616546784114e+01
-2.496642611741565787e+01
-3.118405834851005309e+01
1.107723765707721597e+01
-3.385912783266758908e+01
-1.164512111991809604e+02
-1.690111893995126593e+02
-1.159699455116991942e+02
6.614023882927369868e+01
1.337801666387002228e+02
6.914072228288031141e+00
-1.528371923489596540e+01
4.440513104151538215e+01
-8.879823481528818263e+01
-1.838611404983846001e+02
1.486145532600984964e+01
1.672263258499039864e+02
7.314493542834509299e+01
1.130370073043755852e+01
4.411141433238820753e+01
3.168834663956360487e+00
-5.961473339386266446e+01
-6.135537172559023134e+01
-6.195847702221565356e+01
-7.567270952347740831e+01
-9.704091811855310823e+01
-1.555472842552403279e+02
-1.967963073246948511e+02
-1.507900432925023892e+02
-5.589659284766725733e+01
2.701573538820061415e+01
8.924572147232353814e+01
1.489497971990224698e+02
2.098415403055840045e+02
2.185445745994630897e+02
1.542235670082643821e+02
1.366684843981582276e+02
2.189006454416880558e+02
1.806260053071511322e+02
-1.401202151853682665e+02
-5.080783194253746160e+02
-6.790457638558174267e+02
-7.461265836552530573e+02
-6.733464297231137152e+02
-1.758085706723496173e+02
5.308169919341546574e+02
8.297820914315623213e+02
6.991986781729790437e+02
5.097173139227999741e+02
2.220164026492733456e+02
-1.740864974540820072e+02
-3.238610178346028192e+02
-2.303363859945285697e+02
-2.082339287582928762e+02
-2.240452575824088512e+02
-1.998457690926764769e+02
-2.403916665687505372e+02
-2.059212224856065632e+02
5.320334505187123142e+00
1.248136326328221486e+02
1.043466630016837229e+02
1.515761111297696857e+02
1.556078353783885859e+02
3.706568808697120687e+00
-8.022185226287389526e+01
-2.858107340874690294e+01
4.038933567905271360e+00
2.278047986088250809e+01
6.828765187294310124e+01
8.134461739273184833e+01
3.528116410512511436e+01
-9.221710268385965037e+01
-2.504839879081038987e+02
-2.621480880787780734e+02
-1.250931368440318749e+02
-5.031692527813408589e+00
8.753920084518324529e+01
1.659541634590024444e+02
1.262151468586353502e+02
-7.826068406752906270e+00
-9.930352826884046635e+01
-1.015697339332095055e+02
-3.927393829300173422e+01
-2.093897819252497072e-01
-3.785498671271787430e+01
-3.315099218035949491e+01
3.534195881964359387e+01
1.744452112832365742e+01
-1.343480509347160279e+01
6.112383650889813680e+01
4.876864390660267645e+01
-9.113618060271593890e+01
-1.091568593602308965e+02
-4.560983597073544615e+01
-6.543760606246188161e+01
-3.877718289508175076e+01
3.167369281772695189e+01
-3.426296344385206538e+01
-7.313740225402210626e+01
5.803042534405485497e+01
9.030538102456866056e+01
-2.465874945082541458e+01
-1.526161549436818277e+01
2.761060959114949753e+01
-1.127260590420941355e+02
-2.060094383924932515e+02
-6.152619943539204428e+01
6.129181647713616599e+01
1.539468596158710412e+01
1.371295731304661203e+01
1.212588607131410754e+02
1.349441156127366241e+02
8.880819504878679993e+00
-8.391982702509145042e+01
-9.266172581573769662e+01
-1.163260987957355610e+02
-1.458448847825418113e+02
-9.233605504986029189e+01
1.198494930438621964e+01
6.603948223704372822e+01
3.238615551876019083e+01
-5.868695131265390330e+01
-9.847283625469266610e+01
-3.486803825616163977e+00
9.885291812020868463e+01
6.961905042206150540e+01
2.205704925215232137e+01
2.806421958161329044e+01
-5.139306859052835819e+01
-1.582113643484289014e+02
-7.163510950445103731e+01
8.849364840168013302e+01
7.564083773880449257e+01
-2.573305055288836485e+01
-9.366159550155397540e+01
-1.695992003937563481e+02
-1.715483371818677369e+02
-4.547592861549513543e+01
3.717323279660456592e+01
6.471100493089171835e+01
1.526603022703740180e+02
1.331086836988951347e+02
-5.753893723818293893e+01
-9.236653776639184343e+01
5.191232782900714682e+01
2.276170724108784427e+01
-1.215842364408184437e+02
-8.895003121803131307e+01
-1.062742570512081386e+01
-7.721689710111085958e+01
-1.239965181473364169e+02
-3.899296006930116221e+01
4.321920727068472701e+01
3.429080689591294373e+01
-2.278356826072832320e+01
-3.764112108145214108e+01
2.707501710041681164e+01
6.278693147242251626e+01
9.024214401532809404e+00
-2.293379406987881453e+00
5.412215412172362505e+01
1.471473128016678089e+01
-1.113486733763984233e+02
-1.368543787615454619e+02
-4.064709025841651169e+01
2.874614563631355324e+01
-3.994602934624531088e+00
-6.128695946064682687e+01
-5.227141080931097150e+01
-5.047174202608452731e+01
-1.323679158735482986e+02
-1.212316633457719774e+02
7.473315514820907879e+01
1.716853957190767233e+02
6.094590592206309054e+01
2.484451588833490732e+01
7.680179610100822174e+01
-1.283300497144476893e+01
-9.540397417745708708e+01
4.530273487466114801e+00
4.936212461356360848e+01
-4.297066781659849255e+01
-6.405327918747630633e+01
-6.014691669939314522e+01
-1.296100208825239122e+02
-1.344876723874245670e+02
-1.118901050874746943e+02
-1.772861546017867056e+02
-1.547068118468047544e+02
-1.548685703151157611e+01
3.598556980784563564e+01
1.069636476835967613e+02
2.976735824232976029e+02
3.468969916725372400e+02
2.552176015109477589e+02
2.546303948074476580e+02
1.754549960102702642e+02
-1.209602566265088797e+02
-3.807869844793875700e+02
-5.530461614173432281e+02
-7.081402658647006092e+02
-6.183334019142602074e+02
-2.601849132715179849e+02
9.219030382852268701e+01
4.240014743870203802e+02
6.956913217554686071e+02
6.257641774733278908e+02
3.276631450485103301e+02
1.546185277874613746e+02
7.130570012320674778e+00
-2.585558584079404909e+02
-3.912993627715362095e+02
-3.037511649863950538e+02
-2.523816790286260812e+02
-2.848624360384364991e+02
-1.808495160903160865e+02
5.622008112810563318e+01
1.401228638909801987e+02
2.863565066080266064e+01
2.330752846989977911e+01
1.456517325949401709e+02
1.112118018322578479e+02
4.285555598248578235e+00
6.602838345376414964e+01
1.049608549734183498e+02
-3.068608286630251314e+01
-1.155804159152365287e+02
-9.204599145754355050e+01
-7.651362572390121386e+01
-3.714108043767064515e+01
-2.494402977739002836e+01
-9.273262302117265676e+01
-7.584229579280156486e+01
-5.731258872685739192e+00
-4.759808408302885141e+01
-2.840143770160146985e+01
1.079327052812113834e+02
7.342878097212256705e+01
-5.939130260684691365e+01
-2.932169452537847576e+01
