2.177228795476420055e+04
3.675363763877474412e+04
2.329497371917802593e+04
2.119162569844640166e+04
1.771042412019780022e+04
-3.189524028957006067e+03
-1.277019046538838302e+04
-4.820168692291183106e+03
-2.839596720878450469e+03
-7.030200605753573655e+03
-9.068187158209622794e+03
-1.061649116566708835e+04
-7.515867877500191753e+03
-1.047526002018772033e+03
5.858101880709362064e+01
4.088331130133356055e+02
4.123471897265707412e+03
3.922708799248992818e+03
1.819810143521933696e+03
4.164752785964872601e+03
6.195501839565697992e+03
4.940091378943443488e+03
2.850115994447404773e+03
-3.557166757064004514e+02
-2.046358019454631176e+03
-2.308713207286260172e+02
-3.090949682013376787e+02
-2.936480164446439630e+03
-3.297654884980324368e+03
-2.909611645110714562e+03
-3.468414005424041079e+03
-2.390536948227036191e+03
-7.046924482658645275e+02
-2.230181540833806153e+00
8.516413508054320118e+02
7.561494669221733602e+02
1.407830260106915716e+02
1.908664240960899633e+03
3.715957117207356077e+03
2.699266408238223448e+03
1.501419824051163005e+03
1.172607576124004709e+03
4.234893514486592494e+02
1.371444515331928926e+02
-1.243133228148096663e+02
-1.448948379555259407e+03
-2.118503411072097606e+03
-2.076288560009548746e+03
-2.644048138626755645e+03
-2.066907937498423962e+03
4.816084315989756703e+01
1.043711441971906879e+03
7.528493322020098049e+02
5.176880254722540258e+02
3.753872945532651784e+02
6.864859146854863639e+02
1.123360477584549017e+03
6.759195571861498593e+02
3.676399747807976155e+02
7.542100114129488020e+02
4.396638364969458621e+02
-2.060605469995734040e+02
-8.950723032226309783e+01
-5.846317205423838459e+01
-4.174024502311764309e+02
-6.093269446244437404e+02
-8.338485134089916073e+02
-6.639200870832602277e+02
8.413247823973932782e+01
6.650080444215703324e+01
-5.453608387947029996e+02
-2.918558084038558036e+02
2.310040740065375360e+02
1.609229474903004586e+02
2.089207828004571184e+02
4.666448805869845842e+02
4.550916295353155192e+02
3.746637658930306429e+02
2.396386470697403013e+02
8.813973318880925945e+01
2.512041103600813301e+02
2.602837940480947623e+02
-2.266491718848402286e+02
-4.906012240613416111e+02
-3.180528172148388535e+02
-1.663771378898202897e+02
-7.655355377352688606e+01
-1.028640655782163691e+02
-2.542489176491392868e+02
-1.629312676775793136e+02
-2.707659548216465595e-01
-8.729246108843122443e+01
2.716237879448992487e+01
3.970357112810869467e+02
3.940731569417228570e+02
1.277181617966361955e+02
9.211558278449517445e+01
1.641267700700995533e+02
1.155729686417919737e+02
-5.097705530455886702e+01
-2.441367560556783758e+02
-2.343473271215353009e+02
-6.617367021823815776e+01
-4.272826676256875089e+01
-5.862405408581916788e+01
4.788824028840077318e+01
4.091074104743671569e+01
-9.186042307330427548e+01
-1.001569028358597393e+02
-4.370212161830087538e+00
1.195876095270952248e+02
2.320377993553684064e+02
1.749034854292854675e+02
4.296677417892088613e+01
3.896847685150907381e+01
-1.643536873845575741e+01
-1.835517907053993838e+02
-1.822745864888951814e+02
-6.769944403919828346e+01
-4.583244479992842457e+01
1.586629321463638220e+01
1.172446782538922889e+02
8.922290522735393381e+01
6.143168037094834233e+01
7.762799956534345824e+01
-2.510886476798627598e+01
-7.926864033409196963e+01
2.465264267199199821e+01
-1.484517858719556216e+01
-1.567662487611419522e+02
-2.647018002425120642e+01
1.496646094688620394e+02
4.151537222699021612e+01
-3.473910307508133144e+01
9.804096524535953705e+00
-9.722050279891470836e+01
-1.417668378671729954e+02
1.752450764367299030e+01
6.725348668270780195e+01
6.021902172303663292e+01
1.112449683612949798e+02
-8.919119122750576167e+00
-7.157389819524351537e+01
1.780153235532927170e+02
2.753492698284284188e+02
1.120666907120518090e+02
4.110008449873424752e+01
-1.096555902900369119e+02
-3.302863653537678488e+02
-2.442235650284264352e+02
-1.355679720225561198e+02
-2.060006061649807805e+02
-1.061910474350987101e+02
-3.581309713594963284e+01
-1.443949784010104338e+02
2.734398227559630001e+01
2.716581732698938936e+02
2.445632647289122588e+02
3.396550465319074306e+02
3.927538243288848889e+02
1.441639403719993311e+02
2.395550499509552083e+02
4.591159753435308062e+02
1.324980185002955224e+01
-4.130499774380831468e+02
-2.802344360831551739e+02
-2.477493712982875422e+02
-3.387178468623797585e+02
-3.235106397642628053e+02
-4.207491093428193381e+02
-3.745801093054389526e+02
-3.013575463612346539e+02
-5.252437196525532954e+02
-1.464101891374311890e+02
7.547345026848403222e+02
6.681144976050576361e+02
1.339760346516136167e+02
4.101716133247412017e+02
7.818089754621919383e+02
8.632065633626364161e+02
8.622694907134733739e+02
2.814744552283790426e+02
-2.504648699550836000e+02
-1.777211637050340016e+02
-6.276373295400204597e+02
-1.057464349789774587e+03
-3.171040674653855262e+02
-1.167892251594462323e+02
-1.089073934981171533e+03
-1.405719959307653653e+03
-9.784494949955252423e+02
-2.850448845342294817e+02
6.759284529485944404e+02
5.405647804969419212e+02
-1.331338776633196233e+02
7.463667715627349253e+02
1.571062985132910626e+03
1.080572121551997498e+03
1.386299734717386400e+03
1.909532205478977858e+03
9.000849859747198707e+02
-1.855109984504976524e+02
-7.747614142009709894e+02
-1.001915748711127662e+03
-2.759795134635612257e+01
-1.868574519935287697e+02
-2.555822458116610960e+03
-2.894485332318071869e+03
-1.084713059358791043e+03
-8.484168155913945384e+02
-9.150089937926053381e+02
-1.461532728033612329e+02
-1.568832109962930872e+02
2.375623257652220275e+02
9.131518076564365174e+02
6.653376309946089577e+02
2.439999558137765689e+03
4.735529184601286943e+03
2.592616273547638230e+03
4.330205468876602026e+02
2.305003511364775477e+03
3.057585814116965139e+03
1.411142696323685868e+03
-7.031170703504764106e+02
-4.363596435595924049e+03
-5.970325185598410826e+03
-4.200931218907585389e+03
-5.057534197247690827e+03
-5.624422475037689765e+03
-1.492003713765817565e+03
-7.225399405094671010e+02
-3.491776520178996634e+03
-5.423775294351366938e+02
5.124799415571330428e+03
8.635034472032957638e+03
1.040729015606710891e+04
6.365902573768196817e+03
2.160942620636487845e+03
6.948774273444257233e+03
8.444980738628875770e+03
8.430003814519782281e+02
-1.598136279947644198e+03
-2.997697657592889755e+03
-1.236588016366463307e+04
-1.688110312481895744e+04
-1.456616003381281371e+04
-1.180263791169006981e+04
-4.512213316921837759e+03
-7.763747956963803517e+03
-2.273208166372296910e+04
-5.554587680635199831e+03
3.448315284492445790e+04
3.972092254701836646e+04
3.590298337197212823e+04
5.633305113552193507e+04
3.450464944055181695e+04
-3.658894874942297611e+04
-5.987795628416077670e+04
-3.582022935976779263e+04
-3.503931418458651024e+04
-3.152602838082446397e+04
4.788557401794843827e+03
2.188069538239836766e+04
7.927316755321559867e+03
4.531256341470516418e+03
1.182659746059843383e+04
1.490530087043424464e+04
1.716600503222766565e+04
1.200770314218250496e+04
1.675605560854676696e+03
5.478995534805374064e+02
-1.980303162839632591e+02
-7.289263003392306018e+03
-7.063224078949640898e+03
-2.927878529152143528e+03
-6.535664574827098477e+03
-1.003551259779692191e+04
-8.157522538321472894e+03
-4.729672299338968514e+03
8.036408883028087757e+02
3.628986325415202828e+03
5.148430326236582459e+02
1.006672424145778905e+03
5.569021125881720764e+03
5.432454910245144674e+03
3.979632054100673031e+03
4.898702844282871411e+03
3.422960307136467236e+03
7.020594814194854507e+02
-5.103238859702208288e+02
-1.766686817440994901e+03
-1.165161743060681374e+03
2.037427679766892652e+02
-2.666435040163555186e+03
-5.491554256586674455e+03
-3.436443029299797217e+03
-1.390006632742546799e+03
-1.261800126498556892e+03
-4.665723908882901583e+02
-1.325228660447343998e+02
5.782624582470457142e+01
1.374516861600915263e+03
1.588216270438238098e+03
1.600700948898187562e+03
3.234877018341803705e+03
2.905083992058160675e+03
3.550063343311165340e+02
-8.178401072900521740e+01
7.860807093895359685e+02
5.393350382814022623e+02
-8.145770243033612701e+01
-1.249348300728040840e+03
-2.329898841265894589e+03
-1.599987739036219637e+03
-9.364578010828529386e+02
-1.387213752160409967e+03
-7.048446900405006090e+02
2.466503084184383567e+02
-3.128184430872837538e+02
-4.950189633855889610e+02
4.018388970915320328e+02
1.063313259813385457e+03
1.489646789088631294e+03
1.215656498594321874e+03
1.755106112181725280e+02
2.246543164178016809e+02
9.434092735287886171e+02
5.003046304454579740e+02
-9.057503163868574347e+01
-4.346373532994793010e+01
-3.883937729869508075e+02
-7.702358439067986637e+02
-6.664607858995053675e+02
-6.108806532508464215e+02
-3.514165225883087942e+02
-8.531227494394049415e+01
-5.576809008282115201e+02
-7.023207672774757384e+02
1.205417544159027869e+02
5.439845404864130387e+02
3.507815534954948475e+02
3.498951386261903167e+02
3.329018911650515520e+02
2.999232377438156050e+02
4.571155937408504428e+02
3.326182868902129144e+02
1.135070452582098852e+02
1.746982057537157971e+02
-6.233623485107543161e+01
-4.774884610269166387e+02
-3.244064873440056544e+02
-9.760153851889302956e+00
-4.268052386212688276e+01
-1.582433411024169345e+02
-2.920223262501029353e+02
-3.284453168317435257e+02
-5.570473708038599625e+01
1.062639798611581341e+02
8.826337392058047016e+00
9.505383367707541709e+01
2.181339374812920937e+02
9.716378864610375388e+01
6.266248135168181932e+01
1.927709927370555363e+02
2.295008753333410141e+02
1.713423041765885841e+02
1.820923323585416043e+01
-1.595218859350506477e+02
-1.209945764626332618e+02
-2.075261482066862584e+01
-1.068093318538118410e+02
-1.568747993705017905e+02
-6.689245504480632576e+01
-4.939817853297238059e+01
-7.651921924288271271e+01
-2.199165716773155665e+01
5.790783484715926477e+01
1.188055717962051574e+02
1.355298436007751945e+02
9.778882704543754301e+01
8.113218228691836487e+01
6.239695411931707270e+01
-2.548804448070973194e+01
-9.043993485299792212e+01
-9.234177226396008109e+01
-1.009113552387786257e+02
-7.377241839385689559e+01
-6.537937513546424384e+00
3.085109174564486167e+01
5.816412542886865822e+01
1.099739799804629286e+02
1.198668121023375477e+02
6.404647963592205429e+01
-4.773710950498303518e+00
-7.581229898615765705e+01
-1.224973522796971963e+02
-9.301085994632904885e+01
-3.814724793393633462e+01
-1.715400080331366794e+01
1.072083756933533394e+01
4.131098259304505405e+01
2.775815782572849244e+01
2.009344571456067641e+01
5.506735636083663366e+01
7.363987311305106687e+01
5.320665789180852556e+01
1.422465518610061253e+01
-4.042933926542244194e+01
-7.767398099402099376e+01
-7.137576791826768385e+01
-5.307617581332180379e+01
-2.901609036995128221e+01
1.106378912460668218e+01
2.829923551564925077e+01
1.270425375542915170e+01
3.271018734326955002e+00
3.272800587356387236e+00
-2.644113925346812888e+00
-1.490607455355274880e+01
-2.867935712987813446e+01
-1.673639066194701286e+01
2.099636109437286180e+01
2.818722262395011313e+01
6.998207709469117077e+00
1.436820756964159429e+01
3.101343962421187683e+01
2.453572662198438792e+01
3.531331014252565126e+01
6.962832494338915978e+01
7.521400142430407243e+01
3.520055449734850583e+01
-3.158442322450599704e+01
-1.030385967645810013e+02
-1.706723494181235310e+02
-2.408152372175369749e+02
-2.718999274966942039e+02
-2.055608388156124988e+02
-6.953819953974249302e+01
1.101153039618272089e+02
3.540871196984279550e+02
5.508556367362353967e+02
5.303897958145184930e+02
3.231846811409731686e+02
3.951741468458896378e+01
-2.895997989814126186e+02
-5.400284655876720308e+02
-5.369678503827557279e+02
-3.396691375339953538e+02
-1.383900873663085065e+02
2.149850447559013844e+01
1.516307576043812730e+02
1.856139722813837807e+02
1.265825008918967143e+02
1.014057035289055335e+02
1.465100985306562507e+02
1.554213387941950657e+02
9.927019481953000479e+01
5.027343374981604285e+01
-4.855309937983234292e+00
-9.211604513783241543e+01
-1.210010162017595405e+02
-7.190479929799359127e+01
-5.128377202281507152e+01
-6.267610380186135899e+01
-4.667892868778267967e+01
-4.589829544631555791e+01
-6.801147843193065512e+01
-3.875236236482407293e+01
2.438365094757153173e+01
6.063661689436393232e+01
7.424774741207667716e+01
6.018695090752069632e+01
2.033372394228749869e+01
-1.155837144774513270e+00
-7.892595791958468610e+00
-9.888411553243145136e+00
2.775177296799068571e+01
6.178951689932991087e+01
2.438269824533331587e+01
-2.206046269650427405e+01
-2.154495337482558881e+01
-2.340087878759247886e+01
-3.590829401858824355e+01
-3.294787397268077456e+01
-3.789063992246084212e+01
-4.888376831334537087e+01
-4.680232880883138336e+01
-4.585077969615467453e+01
-1.778071621791939805e+01
5.598487925718168157e+01
8.662184365453143187e+01
3.971927575562131096e+01
8.435165243899954035e+00
9.255771444552891580e+00
-1.936137356436864820e+01
-3.610896241698121401e+01
1.914291094398425486e+01
7.504905959778716351e+01
5.263014968600906940e+01
1.255739890562194816e+00
-1.370332081718587602e+01
-2.810121542414947271e+01
-7.651457503681621120e+01
-1.008350805254378884e+02
-6.777887052077650765e+01
-3.557564128876664711e+01
-2.353396247991826939e+01
1.414759050610744850e+01
6.326508091390764577e+01
7.554232821427780209e+01
6.513229749940643387e+01
5.194054475242324287e+01
2.113796443021218963e+01
-1.423138387532425853e+01
-2.666685960628264240e+01
-2.824127205818037467e+01
-3.171507899749308734e+01
-2.200868394389834748e+01
-8.776912966394920801e+00
-2.112792173717745214e+01
-3.569640816827025276e+01
-1.350983044274439671e+01
8.764578529732535372e+00
-4.786656147938659345e+00
4.452234528464282803e+00
5.075811216087156907e+01
4.172153588757492315e+01
-1.541801013975138801e+01
-2.277646118830969968e+01
-1.762458736336964904e+01
-5.714549192115183018e+01
-4.645800045871214223e+01
3.637595079868469838e+01
6.704743912697220765e+01
4.393176299780047600e+01
4.538023646512461795e+01
2.335829077930533515e+01
-4.459455659733313837e+01
-7.113046897913055489e+01
-5.177250165700835538e+01
-3.835901470066202990e+01
-1.576453047949856234e+01
2.045463012789785928e+00
-1.892844843724401471e+01
-2.462133813375525904e+01
9.149007861574389722e+00
2.841080687595134435e+01
5.042022925490639551e+01
9.884548294008691016e+01
9.804228915003761813e+01
3.483443347724828953e+01
-1.726983990366801436e+01
-6.465416816324356830e+01
-1.223043852887897600e+02
-1.267427192454478870e+02
-7.883634754024446067e+01
-3.300158849099808123e+01
2.410844035916944961e+01
7.345022061239203026e+01
5.499313030552943360e+01
2.370924365163699932e+01
3.651597214544651138e+01
2.703181303261957780e+01
-6.504386697516096660e+00
1.262540873692556076e+01
3.829893457113616506e+01
5.043058986355191564e+00
-2.621245633801660091e+01
-2.596781291771491240e+01
-3.496676443660855682e+01
-3.829615054332304425e+01
-2.466886594454186366e+01
-1.912734949970792542e+01
-6.083947935639351101e-01
2.803020787359147548e+01
1.450527264405783434e+01
-1.885186474019568337e+01
-3.252268472378557362e+01
-5.740402998790256106e+01
-7.476205525257229567e+01
-2.707071544827723386e+01
4.974623317245622189e+01
1.003911049628968186e+02
1.116360171857544827e+02
6.656529553903747853e+01
1.123157842519293581e+01
1.762041108046130944e+01
3.803968643751650092e+01
2.234835304427604541e+01
1.571602077355806415e+01
-8.127700244165216859e+00
-1.063393758953736352e+02
-1.988630064591093003e+02
-2.170488218640166167e+02
-1.990496914745518211e+02
-1.486981097548381854e+02
-6.443826257811934966e+01
2.830906477489540762e+01
1.827639719098611124e+02
3.956404252004310251e+02
5.004559569125424332e+02
4.256471911667030099e+02
2.456946232145349143e+02
-4.410509033121194022e+01
-4.101645647164657476e+02
-6.195591313427672731e+02
-5.284633216667452871e+02
-2.806143658124830154e+02
-6.153971621512209111e+01
9.952651710639493388e+01
2.177152102590739275e+02
2.416003232127609692e+02
1.689000439853811031e+02
1.221955618723873158e+02
1.467691285357741435e+02
1.244794976580905796e+02
2.155080552229942015e+01
-5.726624427899633218e+01
-8.431048921552115871e+01
-9.048290963236198081e+01
-6.536191521008545635e+01
-3.736607622275500518e+01
-3.621899891843644070e+01
-3.254514541124051163e+01
-4.528941375708478745e+01
-8.237362016120768260e+01
-6.286586552298287245e+01
-6.138403993735791708e+00
-1.425468657777554604e+00
8.968765370934233871e+00
6.839597155300278075e+01
9.113492059224485331e+01
8.224390731085655659e+01
8.079321389524091046e+01
2.724216397623067465e+01
-3.461549708499615008e+01
-1.349715662122521742e+01
5.530927939380115177e+00
-2.207014227716010168e+01
-1.340663579937027805e+01
-1.736295496694661011e+01
-8.685731871555576333e+01
-1.035385321778728098e+02
-4.755345621421949431e+01
-1.485649371522685414e+01
1.686078354091344877e+01
5.098875340594483418e+01
1.593057389451209360e+01
-2.718391666518023797e+01
-2.375792145256918619e+00
3.074364772041582583e+01
5.038417937057459284e+01
7.972186938375863008e+01
7.232891168841659635e+01
2.035150097121767487e+01
-2.665004142754007077e+01
-5.903722072651978436e+01
-6.222189430353678574e+01
-3.825633514319602568e+01
-4.224682874543256617e+01
-5.268042448284625578e+01
-1.760139284077169464e+01
9.622178776998309147e+00
5.533660466274167966e+00
1.979776632072371001e+01
3.070496198126433285e+01
1.725129439706591228e+01
1.173058492389068519e+01
-1.054090169424135581e+01
-3.741561027258880046e+01
3.788187325442750719e+00
4.137294644190698989e+01
1.084380043867084975e+00
-9.434103589096953790e-01
5.075077258995295892e+01
1.702720653513808102e+01
-4.936744672467924744e+01
-2.215831432216165098e+01
1.264430789434463165e+01
-2.280779131961928385e+01
-4.674174522344426919e+01
-3.087601393034371355e+01
-2.789460617654974683e+01
-4.187401966710505974e+01
-4.109921317260724294e+01
2.594791432161356326e-01
6.334833423613651604e+01
8.294571556838999982e+01
5.505083180507225649e+01
3.281983190028412878e+01
1.436150928691851547e+01
-1.793586126920057922e+01
-3.731105388066967521e+01
-2.846250052558628596e+01
-3.036615658679996610e+00
7.039192449037278365e+00
-3.161485578780764172e+01
-6.988584448129768134e+01
-4.883654662507971977e+01
-2.709366552002058981e+01
-2.753989428687831875e+01
2.736749202666607417e+01
9.182210064053982990e+01
5.524773530855742365e+01
-1.832961755347680111e+01
-3.310759363178029702e+01
-2.493485502350388572e+01
-1.160600043206925669e+01
3.490991551529884873e+01
7.572372797785324394e+01
6.538602465002333020e+01
1.554461249397865075e+01
-4.281049926187652943e+01
-7.625364259869294870e+01
-7.814302819369464714e+01
-6.586886221042398404e+01
-4.061189475051772746e+01
-2.253889467065189933e+01
-2.761001383193034897e+01
-3.050789887305195958e+00
5.406561908603337230e+01
6.601168156041238433e+01
5.599226555656526472e+01
7.364433213895117092e+01
4.358672214168953474e+01
-2.998079472255511391e+01
-2.971990681446002824e+01
3.037010041860782827e+00
-2.750254975629711041e+01
-5.215328139529863449e+01
-2.648883593183951390e+01
-1.076502932198164686e+01
6.306328109619919076e+00
3.465153037719885987e+01
6.188757054359866672e+00
-5.767140849905971578e+01
-8.283687956823783338e+01
-9.152340868526620454e+01
-8.674738514337887807e+01
-1.092315364897807584e+01
8.569177047005555892e+01
9.574963215589320953e+01
5.494298868110402623e+01
7.266870954826002560e+01
1.320162996312107566e+02
1.433236538845719963e+02
1.147839869801979802e+02
8.060468829998465878e+01
-2.480388909917456175e+01
-2.075264545776143450e+02
-3.202722617168657848e+02
-3.072168601986576846e+02
-2.609977312587542997e+02
-1.965092830739330054e+02
-7.960704050399650100e+01
6.101550927639526378e+01
2.400656754324968176e+02
4.555339512372522108e+02
5.575722812203522381e+02
4.581613311852914876e+02
2.340186132595383981e+02
-8.263814054408437926e+01
-4.391108120174467899e+02
-6.108877742677914284e+02
-4.877696955151063207e+02
-2.471901964168802124e+02
-4.663726786582457606e+01
1.175214345403167044e+02
2.169314740745834911e+02
1.931030768011019347e+02
1.185450542207450582e+02
1.029581954422500871e+02
1.115816330874329338e+02
6.406094966606427477e+01
-6.311724058491773093e+00
-4.527578039165746304e+01
-6.436684167013956426e+01
-5.239222078174655906e+01
-4.233893772622545626e+00
1.128096105151442963e+01
-1.137262229345352971e+01
-1.234007566267262668e+01
-2.887174505224493259e+01
-7.835734109681600046e+01
-6.938511134821168014e+01
-2.457586050622959917e+01
-3.609040991647379570e+01
-3.816890187672882462e+01
1.314354590448651194e+01
3.154707164049904833e+01
4.230958784833406128e+01
9.943588008351684948e+01
1.021432662410853851e+02
4.051920269470335256e+01
2.453387215323116166e+01
5.333463942712220351e+00
-7.041431029739287339e+01
-8.468183910342862930e+01
-3.123267525197530503e+01
-2.973040684168980974e+01
-3.848232806869914668e+01
9.952061530042970006e+00
2.465026634535295358e+01
-2.422753537847026806e+01
-4.545851873791071540e+01
-3.057264734282681573e+01
-2.614313023288186599e+01
-9.399704764069078067e+00
3.620673520764463404e+01
6.263130855823978038e+01
4.963217948265842949e+01
3.975869777793169391e+01
4.686016687811397929e+01
3.052213240334253541e+01
-7.965060818037013490e+00
-2.528405154772780250e+01
-3.826308935074308692e+01
-7.305542157772700307e+01
-8.230300581534949345e+01
-5.286005727170347512e+01
-3.172083295057827357e+01
-9.761810996112092909e+00
2.561207806906699957e+01
3.353311841418967987e+01
3.062652089251983867e+01
5.300817587577359546e+01
5.252589067610404783e+01
1.835475921853789671e+01
8.921536235443644713e+00
6.492992600028941297e+00
-1.961911750957600731e+01
-2.176274407072099137e+01
-3.827164332142826808e+00
-2.363729017766835483e+01
-5.951220629062439116e+01
-6.847152416416227538e+01
-5.986785336466024887e+01
-2.714564476729059450e+01
3.431672402239261288e+01
7.469634948980142042e+01
6.997691933199787684e+01
5.158034496364145127e+01
2.579480014028242607e+01
-1.661872996392273194e+01
-4.252676709513921338e+01
-2.814989623230175297e+01
-1.023941382835149483e+01
-1.004262170164707157e+01
3.977341596234690968e+00
2.604837452872034476e+01
1.742052874795429673e+01
5.759710950118130945e-01
4.034925252722406874e+00
-8.418335646844052889e+00
-4.156387466739974457e+01
-4.658340322901524644e+01
-2.656275507127210744e+01
-1.711814701757107926e+01
-1.285538360327790031e+01
6.430358658124048610e+00
4.424775861420495460e+01
7.048615561548658093e+01
4.520574419770340313e+01
3.520575161299658973e+00
-4.525808971643455969e+00
-1.869810893268888208e+01
-4.435572162446428734e+01
-5.818794149118012626e+00
6.699721569480516337e+01
7.072673216793538131e+01
2.672997729075364504e+01
3.285712284460959864e+00
-1.797762559190310583e+01
-5.791442192573139636e+01
-8.735318718422472273e+01
-9.492535217027068484e+01
-9.922315433940860885e+01
-8.901132428560946153e+01
-3.014613627309506327e+01
4.054143839509337965e+01
6.302149175991890218e+01
9.124765794480993009e+01
1.532991720655479071e+02
1.386671458241808921e+02
7.013370607017901648e+01
9.775863480428424168e+01
1.336157169383587018e+02
2.282012915513005780e+01
-1.100470897749090113e+02
-1.357110015322560628e+02
-1.318790047824305418e+02
-1.482972803197810947e+02
-1.572229981589596548e+02
-1.420513387065921336e+02
-9.520961110132856220e+01
-6.702835812741922439e+01
-6.569805918584997073e+01
2.043077439282164676e+01
1.679114264674932429e+02
2.183913045973633587e+02
1.827731741151358165e+02
1.716511434063895081e+02
2.211521451436204870e+02
2.957779660588315664e+02
2.468294432887239225e+02
3.776603477513605611e+01
-1.034282574376226904e+02
-1.561363602795751717e+02
-3.299386521767689828e+02
-5.028890116355569262e+02
-4.835690096173303232e+02
-4.463564934713537014e+02
-4.891630393184315722e+02
-4.061154005021558646e+02
2.056245626195940090e+00
7.039026880948343887e+02
1.244734951272200760e+03
1.196624049398206580e+03
8.300559889066864798e+02
3.936051118898637355e+02
-3.440214618308138483e+02
-9.950411655007254694e+02
-8.910973837740951922e+02
-4.890418618915114166e+02
-3.998350746735631560e+02
-3.040968707681477667e+02
-9.360158917144789825e+01
-5.345052395664771439e+01
5.992816844960898237e+01
3.846643972185131588e+02
5.100230726899854403e+02
3.628455360414839106e+02
2.233166818866179142e+02
1.430964282043350693e+02
5.281965467495651723e+01
-4.506311104128818101e+01
-9.035625453329014789e+00
1.548262580321470807e+02
-4.629504523790147630e+01
-5.913732065171610657e+02
-5.189246783665928433e+02
1.313625698050875030e+02
1.907935308803724013e+02
-1.155475597225929505e+02
2.006367016151747578e+02
3.656797248744338731e+02
-4.552089948981072780e+02
-9.056773103514461809e+02
-8.165255769471707481e+01
5.771662949938352085e+02
4.264663981893386335e+02
7.115068174387283761e+02
1.141566305130231967e+03
2.631630183431913110e+02
-8.621628275577542126e+02
-7.666621306559321738e+02
-7.297844105569953399e+02
-1.089539523996607613e+03
-1.790399289228619466e+02
8.713964404788493994e+02
2.079885803089695457e+02
-1.496486415480168830e+02
7.818419856241043817e+02
5.921167266352072147e+02
-2.130719987309390433e+02
5.738543483642923775e+02
1.160279850992003730e+03
-3.984580535560120040e+01
-1.047349610788886139e+03
-1.167488741214312086e+03
-1.357951091053265827e+03
-1.200478154677968632e+03
-4.799712160734441682e+02
4.516731086710243517e+02
1.638076139633207731e+03
2.019158748534936876e+03
1.122736287516402172e+03
6.091303197993296408e+02
3.376009270506227153e+02
-1.015609659895179675e+03
-1.866258169658922498e+03
-1.244553098205834885e+03
-8.183949474688237160e+02
-3.208364963696151335e+02
9.237969851331506561e+02
1.118368349592535651e+03
4.462794857636729375e+02
5.552783371191417245e+02
9.541637504194977737e+01
-1.156922515926134565e+03
-6.809950660179289343e+02
6.278777541383008156e+02
4.090173475899409823e+02
9.737140859135659809e+01
5.990699280705124465e+02
2.127250181627588574e+02
-7.004845205482155279e+02
-7.056881667320903944e+02
-3.127113774495592793e+02
6.500487603664554115e+01
4.644162026763847280e+02
3.075476253174829822e+02
-1.591254782237460930e+01
9.259021281840593076e+01
-1.293181709884915449e+02
-5.404980428159622079e+02
-8.686261422518903430e+01
4.834301159535409624e+02
2.325450653330452155e+02
-3.893465229712479925e+01
2.203595060435137754e+01
-1.447501512483463841e+02
-3.115278174182775501e+02
-7.904264664733277357e+01
2.833133398923380923e+02
4.314866103982723189e+02
1.999020714206279479e+02
-1.392422549523485884e+02
-1.821467397840594913e+02
-3.300779716388921656e+02
-6.475829425571612319e+02
-1.584395829614175284e+02
6.937589399143823812e+02
4.213956858075529794e+02
-1.304778430645447997e+02
3.075937322814614276e+02
3.255839541663506225e+02
-6.384181338458134860e+02
-5.835373111412867502e+02
3.993414585801803582e+02
2.552336564040826943e+02
-4.064683948589328679e+02
-1.012013259661770235e+02
2.077334518736211066e+02
-1.144695029418839454e+02
-5.364132173827563577e+01
3.186633872906595002e+02
3.150147561102433542e+02
2.483679304013710407e+02
9.672399145871007420e+01
-3.321671873403993800e+02
-2.920644910053473495e+02
1.362409478007146220e+02
-5.518406369050514826e+01
-4.148205166488585292e+02
-1.629781267872910746e+02
-3.431734336095603055e+01
-3.053092126321596993e+02
-1.493486002336281615e+02
3.445913712391729860e+02
5.463248245421978027e+02
5.082084990477731594e+02
2.888313203450749711e+02
-3.345920549313447623e+01
-5.918746438510223129e+01
-1.449507182413275430e+01
-2.904274239676395837e+02
-3.422938902334888098e+02
2.001232743887965171e+01
-9.103424112988388828e+00
-4.121096107204642749e+02
-3.429109431149747707e+02
4.608407662277015504e+01
9.778600639307013864e+01
3.251612838303640984e+01
1.948393896677457633e+02
3.063151687015027846e+02
2.235261436821311634e+02
1.130435369466860749e+02
-1.688544308201097977e+01
-6.279542374611616395e+01
9.017189556906255632e+01
8.352857061540071015e+01
-1.592403197707211007e+02
-5.068736378071286452e+01
2.916440009658096528e+02
1.190446344379520411e+02
-2.727877024615331720e+02
-2.384978750537931944e+02
-2.347741445814527026e+02
-5.801890328847061937e+02
-6.290042150827869136e+02
-1.874591644986519157e+02
2.540893403178969265e+02
4.998496599602866581e+02
5.804291035445852458e+02
5.684072580807509212e+02
5.915463154320838157e+02
4.835164531509938115e+02
1.470430494779589310e+02
-8.858201850943979139e+01
-1.922711971216529321e+02
-4.665595205696435528e+02
-8.426976521755574367e+02
-1.017904689444173641e+03
-7.451690416455477362e+02
-1.398656262526052387e+02
1.242550568780131073e+02
9.717358529304917170e+01
6.596087415119748130e+02
1.221481356688230107e+03
6.740260281349127354e+02
1.944748305696194279e+02
6.667106824632511461e+02
4.076201299562592339e+02
-8.165622196924327909e+02
-9.957866675759429427e+02
-3.777058966544270788e+02
-5.236149004212219324e+02
-6.724358158749496397e+02
-8.972828989903311125e+00
3.928638105042014672e+02
1.909040002843265995e+02
1.380899695824083722e+02
2.385637555307365005e+02
2.696478960709500257e+02
3.103154399448132494e+02
1.887634591659729892e+02
-6.702720751137475119e+00
4.552069669546254005e+01
6.607000339314002701e+01
-1.434473222076583170e+02
-1.929866094971697521e+02
-7.233075550116988950e+01
-1.175701371616347188e+02
-2.357116903528235810e+02
-2.386438499148778760e+02
-1.539076931429042645e+02
-1.584673120215937647e+00
9.980265136341469656e+01
7.925908227246102911e+01
1.487523049932111121e+02
3.052692685649230953e+02
2.585363924435740728e+02
8.569020228308873754e+01
5.211531808466127558e+01
4.060787466468486429e+01
-1.012432203220985798e+02
-1.985152253883692595e+02
-1.333474919172415127e+02
-4.928950531316932882e+01
-4.976194276720084275e+01
-6.988339737820828645e+01
-5.508836698387752051e+01
-3.262321347578971853e+01
-1.742273546731524192e+01
6.340017488638866050e-01
2.187180954385607379e+01
6.513979410872840958e+01
1.140238220924347274e+02
9.808666646996867655e+01
6.057630865297856104e+01
8.996760564394109849e+01
8.740830065911906388e+01
-1.461385071053211959e+01
-6.246242698788952197e+01
-2.897579712190326617e+01
-5.457169484671187831e+01
-8.461281344477259836e+01
-2.597673354644157584e+01
-1.883763501147927233e+00
-4.991315176123986674e+01
-4.430782356852670034e+01
-1.165159273915611671e+01
-3.677182381666936095e+01
-4.603078457505049670e+01
5.294087237024744041e+00
4.780940172275013111e+01
6.944598276404359183e+01
9.502535950039094814e+01
9.090751651839214276e+01
5.068618170644954546e+01
3.167615013538642188e+01
4.894906066017463075e+01
6.063037192020173194e+01
5.539102312169409714e+01
3.169587639724376160e+01
-6.482388935983762224e+01
-2.250463526023681879e+02
-3.009694454776671364e+02
-2.186131743295495369e+02
-7.143661541762303102e+01
8.548432100961245794e+01
2.429876373116589434e+02
2.925434524115163981e+02
1.750320267539364920e+02
1.364286599260272048e+01
-7.168200196473654273e+01
-7.539426307285454243e+01
-3.634649488921324689e+01
-7.236105184808435453e+00
-4.547784221811065564e+00
-2.703034509152734133e-01
-1.052566157945847891e+01
-3.555062792614397438e+01
-2.492576322720752913e+00
6.371651562116504408e+01
4.888221253273861322e+01
-2.749501488114724879e+01
-7.819164346124109954e+01
-1.029940579224744965e+02
-8.913492104535703220e+01
-9.840151043657895613e+00
7.037729594646866360e+01
1.081538100173691532e+02
1.273635778931917741e+02
9.991386866825244795e+01
2.492449234132354619e+01
-1.003657850274071706e+01
-9.860010412642383315e+00
-5.355111222958605310e+01
-9.977410700328475457e+01
-8.059472896703471179e+01
-4.216282100700582447e+01
-2.439447449282177871e+01
-4.369995347746193359e-01
3.211927529145247462e+01
4.871364330488445660e+01
4.508959791168304321e+01
4.374987901100075760e+01
7.008112825770149357e+01
9.404641228565127165e+01
6.307110253240605857e+01
5.462128603439276198e+00
-3.036393178975949425e+01
-6.734819604216914968e+01
-1.070386969631098566e+02
-1.097132370896643891e+02
-1.009841413815616278e+02
-1.141578588917265051e+02
-1.074707991716282578e+02
-4.021331025813431381e+01
9.129959267251416577e+01
2.503325573095751508e+02
3.373297287606720261e+02
3.009724987664115474e+02
1.850917326854575435e+02
-6.306178993863222892e+00
-2.401686700457331369e+02
-3.456725813212883622e+02
-2.759745813198674682e+02
-1.890374568621753610e+02
-1.114961996322364826e+02
3.511484515637960868e+01
1.489360809796649505e+02
1.319517404649039634e+02
9.755077608866507433e+01
1.161452780427427882e+02
9.906948211066500676e+01
2.285533472734320526e+01
-2.613773588804600223e+01
-1.120365025897323363e+01
9.351608750914806478e+00
-1.528460155875769999e+01
-4.001619336470836430e+01
-1.761962301153411303e+01
-9.676117775606059013e+00
-4.818909431823593792e+01
-5.043033179271748168e+01
-6.603314797776553391e+00
-3.050562107081800534e+00
-3.155719873689540478e+01
-2.606565029911586251e+01
5.043297659807242539e+00
3.289106633816009406e+01
4.744785797277392447e+01
4.056860194736859881e+01
3.516547582796095384e+01
3.746586663710656495e+01
1.152387150431577290e+01
-1.785576513696988954e+01
-3.501546946447969155e+00
3.870366982288630631e+00
-3.325939153807809845e+01
-4.674725965993192744e+01
-1.190534909826211418e+01
1.361460851228097368e+01
2.176896970765697148e+01
3.578371137385590117e+01
2.738693784506556383e+01
-2.083093375788532597e+01
-5.997711636149340819e+01
-4.729530940961867458e+01
-6.866240409571508607e+00
1.938992972709691287e+01
2.856818892175544633e+01
2.764483025457878185e+01
7.229530321116228286e+00
-1.773404869269586115e+01
-9.959397076155859452e+00
2.848195139080816674e+01
6.019808578239990737e+01
6.220950130847781878e+01
3.513140913870380189e+01
-4.024020978302478291e+00
-4.113149627198126979e+01
-7.656700822885215985e+01
-8.897305659535547306e+01
-4.966601527201889610e+01
7.943671148475723420e+00
3.139420962363027456e+01
3.688605353752422644e+01
5.530658761348711749e+01
5.763935616104762971e+01
1.759976517193232581e+01
-2.333902879045949774e+01
-1.990539429141913885e+01
-2.655645219813672409e+00
-1.752957903613840429e+01
-2.655854917236164070e+01
9.285216915474650889e+00
2.837545212853643051e+01
8.045829168635241224e-01
-1.024334518584536280e+00
2.474778715420654862e+01
7.060199443319871371e+00
-2.371272394387433025e+01
-1.228345895413525923e+01
-2.645410363656090169e+00
-1.141089020051284209e+01
3.372451588613349038e+00
1.626634665061291329e+01
-1.283394023034511333e+00
-9.669996457749274743e-01
2.085715946256490128e+01
6.545049980117875421e+00
-2.499005444382020613e+01
-1.169266254634387003e+01
1.528373669640125243e+01
-4.799130444975236998e+00
-2.324566971701428031e+01
2.342084006490802039e+01
5.771789504089380074e+01
7.711969347027417321e+00
-2.668789352000921866e+01
7.283532629045742723e+00
-8.878201260157743135e+00
-7.145164203179967899e+01
-3.790745598267384509e+01
4.326703627424980425e+01
4.053249683235820555e+01
1.887972880576332457e+01
4.175122031539124379e+01
2.552300643358075050e+01
-3.316488355558726653e+01
-5.332935544368139347e+01
-3.984140989940922140e+01
-1.278114529260115795e+01
2.967305416259226902e+01
4.169146001902819165e+01
1.695079941215487906e+01
6.165655316116602336e+00
-4.179487156329149578e+00
-3.184187568422882819e+01
-2.515033420575651490e+01
1.360864383735425065e+01
1.838419799907281771e+01
-9.719541440394284137e+00
-2.274207818351824528e+01
-9.422049247078938095e+00
1.273739351554030463e+01
2.811261194974113309e+01
4.124216880917726513e+01
5.276945859034587016e+01
3.386861063446063014e+01
-9.921008693084854002e+00
-3.092582409611279814e+01
-3.349242662216213517e+01
-4.658989639614600264e+01
-5.617977844065619308e+01
-6.428678976382379062e+01
-7.397561642908895863e+01
-3.488079095452693679e+01
4.329245085584793884e+01
8.341239999685035400e+01
9.679834056503158024e+01
1.162439804454301111e+02
8.919958317359427724e+01
2.265995238018153302e+01
1.149242982994923334e+00
9.803854504975898720e+00
-1.653945532007706021e+01
-5.852745824038730404e+01
-8.683015612994664423e+01
-1.157562342365305312e+02
-1.401085266753881342e+02
-1.363823523492249024e+02
-9.463173755358654660e+01
-1.869124858247928955e+01
7.746382233441802612e+01
1.844666983002729808e+02
2.760541097026078887e+02
2.911406123570786804e+02
2.068515764329195861e+02
5.626771726945358409e+01
-1.356096021774088740e+02
-3.029459414213172295e+02
-3.282208147378287322e+02
-2.111422924062739810e+02
-6.995609546317481886e+01
4.562326094871048809e+01
1.342506312659771766e+02
1.455045485929850315e+02
7.895294702468929415e+01
2.567475535968342015e+01
2.583135200584228386e+01
2.662182695254980658e+01
-7.546129671955135176e-01
-1.719849262640873988e+01
-3.309755970454493657e+00
6.841084741203301789e+00
1.093799760916864194e+01
3.601031856388062380e+01
3.933942538312695092e+01
-2.033995795126365635e+01
-7.812974723818352629e+01
-8.773809840706525165e+01
-8.053183365292227336e+01
-4.560674274599786315e+01
2.443351697272464662e+01
5.926191799035157004e+01
4.444346709856268518e+01
3.443731394746095020e+01
2.808450803002486396e+01
1.976177273424076120e+01
2.746486957728761524e+01
1.777412995889020664e+01
-9.181168743118874431e+00
-5.156804902988693096e-01
5.120058078742086849e+00
-3.125850688898297847e+01
-3.384750086933474478e+01
8.299410154346320567e-01
-1.423327433808263542e+01
-4.317789064747545780e+01
-1.270624999945790812e+01
2.392761860116013395e+01
1.735658260864741465e+01
2.949717197429928550e-01
-5.822657617033496713e+00
-2.543796547225483096e+00
3.268054011818759097e+00
4.469166160585132275e+00
2.272633759503399631e+01
5.397025348763590813e+01
4.469507908935976559e+01
-3.944111561487164686e-01
-2.462382090881731145e+01
-2.378724859063056130e+01
-2.077854375057193792e+01
-2.483347619514355742e+01
-3.723144353064606094e+01
-2.545803342681807990e+01
1.399194622641783958e+01
1.727267998134820459e+01
-6.324692711539414702e+00
8.395058048909872284e+00
1.904160636480507307e+01
-1.512428973525863363e+01
-1.999672712963496224e+01
2.228717301476111246e+01
4.826225427620106245e+01
5.371820627943915838e+01
4.115846972806372150e+01
-1.590121052611081387e+00
-2.331454198357672425e+01
-1.631246781504464138e+01
-4.063138419770928067e+01
-5.857095805581214165e+01
-2.144960497101700625e+01
-8.612006829484984749e+00
-4.449568164544365345e+01
-3.624563080613615540e+01
2.132203938832272172e+01
5.314806453804393271e+01
4.789110899680094491e+01
3.208056263221211424e+01
2.641186734781108925e+01
3.479158856165943092e+01
2.458119218688375440e+01
1.717028609857737864e+00
1.366793426551561019e+01
2.214728350771312648e+01
-2.866891052931569561e+01
-7.627317348581786405e+01
-6.913073096646988347e+01
-5.484241790805860717e+01
-4.606697554745295520e+01
-1.658050909388225946e+01
1.555007619936305474e+01
4.322350203267901492e+01
6.766243322327567000e+01
5.389183032690167607e+01
2.223229562084033617e+01
2.865136900944745690e+01
2.925267456175386016e+01
-1.721876461819620019e+01
-3.356776856488054506e+01
4.040783364072786377e+00
8.899338190840630602e+00
-2.496055627917941422e+01
-2.854292886457522371e+01
-8.522283541950745445e+00
-4.768165353502983983e+00
-1.168093285320278163e+01
-1.594637380277381489e+01
-1.435491837800200976e+01
-1.185580806303641666e+01
-2.157092899778024986e+01
-2.064870480035906297e+01
1.973313818180089285e+01
5.501504130757281530e+01
4.476280123563417845e+01
3.002250720151861785e+01
2.969860792181476583e+01
1.126047087327305363e+01
-1.292038241979667390e+01
-1.415524266612514026e+01
-9.040976324241665196e+00
-8.610007606089432386e+00
-8.063696713578252684e+00
-1.403256411157041406e+01
-1.245934864323955971e+01
6.670443858763809075e+00
7.875180014904434422e+00
-1.999318739947938894e+01
-4.462812156647635931e+01
-5.832323946102260948e+01
-5.970891183123839596e+01
-3.100824656323114681e+01
1.748242776619650130e+01
6.307753583329137825e+01
9.362267016367920291e+01
8.823634875926808263e+01
6.127624734169801712e+01
5.734639945509432835e+01
5.698974430811421854e+01
2.828595951583929491e+01
2.082012691046909669e+00
-2.894003412497437466e+01
-1.012232724743627443e+02
-1.613735447138972745e+02
-1.645441128058834863e+02
-1.509151581147659158e+02
-1.144458288090533102e+02
-3.231356276730455335e+01
3.579553982775524901e+01
8.949548077799680357e+01
2.010836070276385783e+02
3.113394739515356946e+02
3.114455227607817847e+02
2.285706584380034769e+02
9.502438431530885055e+01
-1.224990136617106202e+02
-3.477931037068678961e+02
-4.252107322448358104e+02
-3.321711459317602930e+02
-1.640977552644552020e+02
1.236514952496853148e+01
1.624923887117950017e+02
2.302738351423395500e+02
1.844111202347689300e+02
8.624783202308179852e+01
2.895090083913776269e+01
2.181341254453219491e+01
1.824564164514958264e+01
1.070075336822976020e+01
1.143689741442554819e+01
7.158832176689486460e+00
-1.404201807205506825e+01
-4.206496048111370101e+01
-5.763421512122902612e+01
-5.491039107719979739e+01
-5.552328751034706755e+01
-6.503943816839344549e+01
-5.119915839982820671e+01
-1.622451218242153104e+01
7.013547166323792936e+00
3.319199652179431581e+01
7.000948445706012535e+01
7.493790778921274409e+01
5.494383353288814931e+01
5.038185083039024903e+01
3.388683111502420786e+01
-9.986259408541485527e+00
-2.746346722461404966e+01
-1.855121085003974812e+01
-3.311076118616465891e+01
-4.710204683918973245e+01
-2.026366963190778137e+01
7.597558487453982323e+00
-3.087311642325516470e+00
-2.206266208297357423e+01
-1.930333462887347196e+01
-1.591644123133587208e+01
-2.479455818405687140e+01
-1.267086792358062652e+01
3.016916833738147830e+01
6.020161331627061685e+01
6.066533608357156027e+01
4.986121350340862790e+01
1.897975529652691051e+01
-2.488707958235109530e+01
-3.882189953199657850e+01
-3.314049779344790636e+01
-3.651893556287907217e+01
-1.815570408405233138e+01
1.833797947933786432e+01
1.834999157026233618e+01
2.137212550872419126e+00
1.371733534903627927e+01
1.801848024465572706e+01
-6.088609262688822632e+00
-2.263960085483851259e+01
-2.397176441161871807e+01
-2.081412651572946615e+01
-1.359011986740474320e+01
-1.332092448858767852e+01
-5.431437694192251087e+00
2.947270942210580102e+01
4.857860134409157382e+01
3.122052531419382859e+01
2.843551936361479804e+01
3.862360710515246609e+01
1.066999542085526897e+01
-3.238330085958557447e+01
-4.269340312169685347e+01
-3.382957971204341874e+01
-2.688459410908054892e+01
-1.871022831163463351e+01
-8.558331939250724218e+00
5.835812530163960732e-01
7.656674552049422822e-01
-6.734009003331811627e+00
-4.189165730435404078e-01
1.763188855757358553e+01
1.999918136591382378e+01
8.927220176622824965e+00
5.282022794102689822e+00
1.483946311429150100e+01
3.456506853389659994e+01
4.462132930932335029e+01
2.911508565682219185e+01
6.902793430135194974e+00
-2.001214300472565455e+01
-6.375981741065253772e+01
-8.177114351493493416e+01
-4.833217669692085394e+01
-1.509559579566038323e+01
-1.984034635844778460e+00
1.523482650122913284e+01
1.912911748767492881e+01
7.276768579380233248e+00
1.635602030211587632e+01
3.353875363731251014e+01
3.622967156539156974e+01
3.862799809349631630e+01
2.521254416751842342e+01
-3.576551149749378933e+00
2.560605237143464219e+00
2.074233986319696044e+01
-2.693552041186521695e+00
-2.447558695876303858e+01
-2.645515737048988925e+01
-6.460957812597051486e+01
-1.013182516652545786e+02
-6.804317561166971018e+01
-1.614838796979832480e+01
1.448319298167246671e+01
5.749683988432777682e+01
8.972353804880606276e+01
7.712696563699699936e+01
5.467694003920504286e+01
3.402411759620340348e+01
4.484844932116348382e+00
-6.575037912939644791e+00
-1.071509456625637924e+01
-4.424432329758705151e+01
-6.477437074743326662e+01
-4.123704788623764017e+01
-2.460035401105334074e+01
-1.956188702389221490e+01
1.576110380184598903e+01
4.493269927290509713e+01
1.749287619170712915e+01
-2.937271724076640922e+01
-4.994757617888818402e+01
-4.731146199744573266e+01
-2.061289584503941796e+01
3.133998542281149824e+01
7.861637123641901326e+01
9.387106535485868619e+01
7.403212090690236380e+01
2.982756560548431324e+01
-7.601366368679913776e+00
-1.123155242528533826e+01
-6.670493600633662368e+00
-2.931379457790616172e+01
-5.195339074397400481e+01
-4.731290223639412318e+01
-5.673691379036161919e+01
-9.244707042093425287e+01
-9.096239813138805630e+01
-5.166364395003915888e+01
-4.109984731233897293e+01
-1.841061882887737511e+01
9.925552845112228795e+01
2.306861945340055513e+02
2.581026758501806739e+02
2.177798160492003205e+02
1.372664985984784494e+02
-4.564793567829651977e+01
-2.541383610932449244e+02
-3.105571157595415457e+02
-2.297478686765987845e+02
-1.386470804116592035e+02
-4.046220731350342703e+01
7.074268114634897131e+01
1.118643809882211286e+02
8.333337013059478693e+01
7.912886812134773606e+01
1.062685853263773197e+02
1.002283873525649653e+02
5.652804789926339168e+01
1.781952515052169161e+01
-7.615068808397996492e+00
-4.308128671555631684e+01
-7.315299674342674052e+01
-5.576047490905943249e+01
-2.791427166769002710e+01
-5.160603760446443289e+01
-6.887307052743727809e+01
-2.270439078685294021e+01
9.610088436556893043e+00
6.734592826746212957e-01
2.636324935048839890e+01
5.730855611755860934e+01
2.626077699259801435e+01
5.487459769160707879e+00
4.211416913806660034e+01
5.910109614177409298e+01
3.440904878153817492e+01
7.706520784951894854e+00
-2.585215053480717629e+01
-5.872601619895528557e+01
-6.342362314875022378e+01
-5.130607514681940984e+01
-2.539096065752081088e+01
1.586849286649134783e+01
3.147974706348754381e+01
1.331641267627900582e+01
1.363263334662248250e+00
-2.965550957403677135e+00
-9.847900597359066310e+00
-2.861766238652551753e+00
1.740965494902859945e+01
4.352134910732987549e+01
6.413476018164394077e+01
4.509382636097821262e+01
-3.223666977405505119e+00
-3.409192128950722633e+01
-5.916356408274628365e+01
-8.786956253967504438e+01
-7.338094514564728854e+01
-2.036247131615377981e+01
2.159686500045823720e+01
4.525399625223701605e+01
4.643589074101765846e+01
3.280929264357890673e+01
4.430840793383089249e+01
4.953761280580112469e+01
6.054003938015651620e+00
-1.338062480427017498e+01
9.031731821439825225e+00
-2.595277874364301596e+01
-8.676908278423694298e+01
-6.232927935084345705e+01
-9.640699339495451881e+00
-7.595133260627344285e+00
6.546552314081723445e+00
5.548513886735670297e+01
6.488206782133256922e+01
1.892735048650150986e+01
-2.849320625914896610e+01
-3.775331292034378805e+01
-1.776844490562436363e+01
-7.953805679868286127e+00
-1.479546173178845958e+00
3.475175928490964594e+01
5.493407067456193005e+01
2.002706801300217165e+01
-3.993328665194669558e+00
5.308949497300297082e+00
-1.263504601476454425e+01
-4.421450451893787914e+01
-4.622123929959576571e+01
-4.837090040142003033e+01
-4.907080264547109749e+01
-5.835103014790975706e+00
4.613149368032748043e+01
5.966449045106654836e+01
5.707356790919882172e+01
4.390724281180296629e+01
6.254261335631507102e+00
-1.980321671583470078e+01
-1.250164526295009537e+01
-7.098132364001425998e+00
-2.069369101261371924e+01
-3.617543317868804564e+01
-4.397524320530555997e+01
-3.731093940174298496e+01
-1.024980456340531987e+01
2.534642401312119731e+01
5.063101366901088340e+01
5.329781902474925204e+01
3.602771120043939135e+01
1.891578204279696607e+01
7.314858031179650943e+00
-1.146596776738474155e+01
-2.726449679434402640e+01
-3.169182642987838960e+01
-5.185673150278925903e+01
-8.054802744040060247e+01
-6.007845720801650913e+01
4.148733049915775517e+00
4.615960570463994372e+01
6.457927725190903345e+01
9.103590279921475314e+01
9.015803277035965380e+01
3.450419691005205181e+01
-2.254734042162021979e+01
-4.348881853259016594e+01
-5.479790857714850461e+01
-6.303758028402690172e+01
-4.378965833478213199e+01
-8.491812449582704758e+00
9.176979037323082622e+00
4.705890741942410749e+00
-5.038568151457416988e+00
-4.924627726713713294e+00
1.353117966517137560e+01
3.930140848726126990e+01
4.529630689091406026e+01
2.817416393776321115e+01
9.126643798044044686e+00
-1.431771029634817616e+01
-5.037222614065203885e+01
-6.391839884970680430e+01
-3.341124511137326181e+01
-2.485740768948948798e+00
6.591790814255045206e+00
3.027997606656067120e+01
6.916969887750451562e+01
8.455068263501848946e+01
7.300470887112102503e+01
4.148069986889648675e+01
-1.475903174903075232e+01
-7.694209324238374847e+01
-1.279024691110237058e+02
-1.605882587051399355e+02
-1.435317880407129110e+02
-8.052756142764552294e+01
-2.199707534442234547e+01
5.424678517627501861e+01
1.866192136151337024e+02
2.836527487286530800e+02
2.610933926426328640e+02
1.714029788404843657e+02
4.213713030086733369e+01
-1.480112682673025120e+02
-2.983444711155631239e+02
-2.903284166601621337e+02
-1.845685959456032208e+02
-8.709719319170019958e+01
3.594644747977694177e+00
8.545636735866770550e+01
1.063249371764169098e+02
8.481490068701236851e+01
9.723111825655378482e+01
1.391325055349497859e+02
1.340369040356417258e+02
6.434902323423192172e+01
-1.512261889664860348e+01
-7.164647588432751490e+01
-1.099126785530257280e+02
-1.188181241566532691e+02
-8.268456611253643018e+01
-3.062823052521109801e+01
-1.111084988864535639e+01
-1.937141094712152878e+01
-6.684643796663755744e+00
3.254912658359696565e+01
5.089651966998567190e+01
4.205715679806054652e+01
4.761476402078486814e+01
5.485065339660694406e+01
2.212338833633095447e+01
-1.286644918307185392e+01
-3.420337233983694158e+00
2.746656857021728015e+00
-2.763793840190224671e+01
-3.895449744081485477e+01
-1.940225703171525851e+01
-2.198984041035122416e+01
-3.311799264600498560e+01
-1.273828669139153469e+01
8.572130431055235533e+00
1.176685348506054929e+01
2.532374948534560488e+01
3.752532213157241614e+01
2.743113421137092089e+01
1.585389070889041996e+01
-2.453772085886585241e+00
-3.220677222968148357e+01
-2.599072370879648375e+01
8.340999066180813770e+00
1.282902570410061038e+01
9.141211023694713944e+00
2.304878861214866603e+01
1.039595119333749729e+01
-2.125248576500418096e+01
-2.773304337800402308e+01
-3.045412385198777017e+01
-3.387351520102043168e+01
-7.476779256014875585e+00
2.326322475263420841e+01
4.002283449977838359e+01
5.649951290211089372e+01
4.127493735668465291e+01
-2.359126571887591783e+00
-1.471955289307335057e+01
-9.993813968741500631e+00
-1.436124805568664620e+01
5.921452524104175552e+00
1.874580990364261979e+01
-2.241903820407629411e+01
-4.949530710730121541e+01
-2.773784051082174429e+01
-1.745291458415231034e+01
-1.814277873303016975e+01
1.734025178623903152e+00
1.382416473933679057e+01
5.599595320330150727e+00
7.738468124021364858e+00
4.198470906548582349e+01
8.722233389944165083e+01
7.877676159371593201e+01
1.350229355529746122e+01
-2.237400367132628531e+01
-1.245869807256663364e+01
-6.893338941710240420e+00
-1.580072084897668372e+00
-7.329174234841257629e+00
-5.060200297821605631e+01
-8.181384037007015309e+01
-7.890368514519855125e+01
-6.197341551100164025e+01
1.501807766635586461e+00
6.069223630640338030e+01
9.873625680203414134e+00
-5.720868374954994806e+01
-1.639297098326373003e+01
5.504473911485196425e+01
1.025734622189956582e+02
1.569519972829059213e+02
1.598090628486041851e+02
8.760800381485964294e+01
2.421318844934609160e+01
-1.330412625792666859e+01
-5.599946568944395153e+01
-9.838843589270656764e+01
-1.447726903102951326e+02
-1.869736900233346830e+02
-1.854724717533864293e+02
-1.095483858960408554e+02
3.021064141571861228e+01
1.145179559186590978e+02
4.608626458618375921e+01
-3.732470387451145655e+01
6.290581030997735468e+00
9.394880114999877208e+01
1.519186758109247535e+02
1.913070293398215824e+02
2.041939564339943161e+02
2.146366066154019734e+02
1.498742788747967722e+02
-6.159913964075695958e+01
-1.510126285008297202e+02
-8.100885256481861063e+01
-3.570897132843099939e+02
-7.875603936419706770e+02
-5.018930305228094539e+02
2.168264769183185479e+02
3.969852197195276631e+02
3.524649851027903082e+02
7.171426053540426437e+02
7.570937058425498662e+02
-9.233503513115553574e+01
-7.457096915366790881e+02
-4.248228547537971167e+02
-1.854657231489655942e+02
-7.044276820323149195e+02
-7.173920542773339548e+02
3.466240389747204631e+02
9.440260829692583684e+02
5.783473202167115232e+02
6.472365183746840103e+02
9.794482029894013522e+02
1.883444045614982372e+02
-8.579183540438775708e+02
-6.405368146313247735e+02
-6.282763300565364695e+00
-9.663613650552372292e+01
-4.846600984797987621e+02
-7.752890956519630663e+02
-9.632998964407325957e+02
-7.819748437677270658e+02
-2.719774224778051916e+02
5.064423087766305684e+02
1.562091441827446488e+03
1.819943056082907788e+03
6.943551533960767301e+02
-5.612801190769427961e+01
4.287924767703877933e+02
3.972812806849679532e+02
-3.604411856064523931e+02
-2.413191382122820698e+02
-1.311107204671061481e+02
-1.408660390739519244e+03
-2.127545930809213587e+03
-1.004465958285985039e+03
-7.005727668940627950e+01
1.678041085715114988e+01
6.132275416707485647e+02
1.124166893594352814e+03
6.723416459978745934e+02
4.775929420757273647e+02
8.244353246005383653e+02
6.843922864097960428e+02
4.106197618679752281e+02
3.333706123777263315e+02
-1.648344809857376845e+02
-5.183032601479759478e+02
-2.857255413534971353e+02
-5.408443456024564284e+02
-1.090872150160761748e+03
-9.011330068273376810e+02
-7.320936558506659821e+02
-8.115206866531893866e+02
5.081650376152273196e+01
1.065640806447053137e+03
8.579826529621844884e+02
5.464286201129436904e+02
8.375441453680389259e+02
5.836976122356878705e+02
5.093638400373323094e+01
3.730294245950587992e+02
6.525652496714759536e+02
-2.369781766757712660e+02
-1.218363847623844549e+03
-1.062226806084066538e+03
-5.558357919611028137e+02
-5.381771315895374528e+02
-8.637647151261829492e+01
8.960803700610625810e+02
6.256347736937190120e+02
-5.723954142969857912e+02
-4.481418957763738717e+02
3.619828642019249969e+02
2.632786907850837679e+02
4.418473801426875980e+02
1.072067401765966224e+03
3.609257823978915098e+02
-7.729297491792710844e+02
-6.811688367641203286e+02
-4.430888449782103748e+02
-3.546494389399158536e+02
4.074353313705412916e+02
6.742045412965794640e+02
-2.739954069486802979e+01
-2.751121155105450953e+02
-2.060944841080776655e+02
-3.360603785645345170e+02
8.690340686954631622e+01
5.257051085044934098e+02
2.282909047683141353e+02
6.045240441069035597e+01
-7.717198049701180196e+01
-5.967382485677435398e+02
-3.784933877886587084e+02
1.884072170729486970e+02
-1.465187620915375533e+02
-1.272326681508032920e+02
6.678392318905654292e+02
5.612918408887575197e+02
1.862474629941276874e+02
5.602635350275636483e+02
9.520300198934747016e+01
-1.090452449954142139e+03
-1.064735008219098518e+03
-4.642810812931929831e+02
-1.561223907140956442e+02
7.174867452989237790e+02
1.425089955750135914e+03
7.500795798435553934e+02
-2.929513996864869796e+02
-8.524608310063033514e+02
-1.088055706177764250e+03
-6.433317129603816511e+02
2.599841608071577639e+02
7.850247842416696358e+02
8.696360674209663557e+02
4.024133058811471528e+02
-5.385152531789694876e+02
-8.133045039258552151e+02
-2.468952412128305411e+02
1.764123592447139970e+02
5.264521218329867907e+02
9.447927909290662001e+02
7.185729585886618906e+02
3.272031087195543364e+01
-4.951577094608608149e+02
-9.384552977699622716e+02
-1.044896670473079666e+03
-7.881214066986698299e+02
-8.178562003569327317e+02
-5.800890785740797355e+02
5.805200202611400755e+02
1.379307852858093838e+03
1.279475122913521773e+03
1.455479543882067901e+03
1.477347184892663336e+03
2.042792416322562019e+02
-1.154041435795159941e+03
-1.286830071718570025e+03
-1.006355131621173427e+03
-9.471203169306940026e+02
-5.981001883570124846e+02
-1.642425873516369350e+01
1.466123156230301845e+02
-8.462642643569401457e+01
-5.545540212479422593e+01
4.690635483288129421e+02
9.424413467387676064e+02
9.381577682518139909e+02
6.743403192167213547e+02
2.900376827472418313e+02
-2.785426521179363704e+02
-6.979595723612029587e+02
-6.462943939282912424e+02
-3.298112216994582582e+02
-3.591742266322429344e+01
9.064941388049618354e+01
-1.994886804441410533e+01
-1.734314319020089670e+02
-1.560927035663883657e+02
-4.322961629145835616e+01
9.374893187958483054e+01
2.323819000818614313e+02
2.329773716096015335e+02
1.051179836084490518e+02
2.990619842850126719e+00
-6.143423303153204529e+01
-6.870504783513051450e+01
2.395982873478222430e+01
6.674987111266997886e+01
-4.365237702981096035e+00
-1.895347492090873232e+01
4.586416891951304109e+01
7.049491042738564772e+01
6.892784956616860370e+01
6.509073490291169151e+01
6.927016641431603006e+00
-8.814170654970617136e+01
-1.585563990068464761e+02
-1.808250560231354882e+02
-1.578073162772504929e+02
-1.166178402451179323e+02
-7.550859564827521808e+01
-2.589402813813666171e+01
4.756229061581745299e+01
1.681957360127816514e+02
2.809814475808973953e+02
2.604050229651995210e+02
1.395807510082118768e+02
4.586091176087818155e+01
-5.472048591047168031e+01
-1.701479751229469457e+02
-1.535134169367845800e+02
-2.568729987087240829e+01
3.799091142437450230e+01
2.465562231852337405e+01
-2.548298948842745659e+00
-4.633163647089330084e+01
-8.236734958192559475e+01
-9.708062669915763365e+01
-1.031553171694376800e+02
-5.730085245595446963e+01
1.855466535779964943e+01
3.476379586235371733e+01
4.070738618131922237e+01
1.065430929412521266e+02
1.475419946712494834e+02
1.138886349270947278e+02
7.320599493206744057e+01
5.434230823312521608e+01
3.420239776050258484e+01
-8.839057895051428915e+00
-6.944586365665594485e+01
-8.881125357441743517e+01
-6.823767360418239036e+01
-8.809107798767283271e+01
-1.087128131094704031e+02
-4.770671061260732415e+01
6.768817884679756425e+00
-1.393911415611605698e+01
-1.530457310078555899e+01
3.060702724470785796e+01
5.247040956688400115e+01
5.569528207180501056e+01
7.381522707972730757e+01
8.346363942230651389e+01
6.224093361865255503e+01
2.182681128098073486e+01
1.432401984726792976e-03
1.219634184265135168e+01
1.368708060304330587e+01
-1.043958006485861745e+01
-3.006168867152419111e+01
-6.514937077282799294e+01
-1.092044419208339718e+02
-9.126612251825491740e+01
-3.861922269901854321e+01
-1.932729297358801901e+01
1.201657864179935054e+01
6.354791016231428102e+01
6.096796049674910734e+01
4.087294048198823759e+01
6.343220167697419498e+01
6.865455705905434058e+01
3.444834473673765984e+01
3.739002490981767846e+00
-3.685461800231730223e+01
-7.051402755468444639e+01
-4.652504176065648522e+01
-1.209132380751397662e+01
2.628925328658641813e+00
5.191730794614752398e+01
8.662575556207363547e+01
2.396971879744265976e+01
-4.859577345679282701e+01
-5.103192616080784205e+01
-5.520056798572723977e+01
-7.735114192683364820e+01
-4.218804817184858535e+01
3.280087778224603312e+01
7.203027598146944399e+01
6.302024285826247052e+01
3.128407255867533365e+01
9.229779469674227244e+00
8.360728556306202819e+00
-4.858036924410011004e+00
-1.847875413634795905e+01
2.193849273732192628e+01
6.256636844286996535e+01
2.392316164815861157e+01
-2.592789009468641481e+01
-2.549477410194566929e+01
-4.082079915700347783e+01
-7.766842439105377593e+01
-6.432576095915442238e+01
-2.018524571668714174e+01
1.281456973004639188e+01
4.898626123433666635e+01
6.598471986307453108e+01
5.127782528228524939e+01
5.076144880120647684e+01
3.935387315107801953e+01
-2.149972967945042157e+01
-5.015913206177403794e+01
-1.936551331439731882e+01
-2.427475608341103097e+01
-5.149183010193848276e+01
-2.004382016262139388e+01
1.649692537886762977e+01
6.993400928787430360e+00
1.320509436425996874e+01
4.069859266314917789e+01
3.495271069551382936e+01
1.668136340273613882e+01
1.583429541519421768e+01
5.249440068149904270e+00
-1.781798229196085259e+01
-2.863484620783375334e+01
-3.289704214980110208e+01
-3.853353991005180745e+01
-3.026529222748510861e+01
-4.464921262460199713e+00
1.367457456084605560e+01
7.389464753674640285e+00
1.732928640812434473e+00
1.577286367219343077e+01
2.299589611809330947e+01
2.045857457374670929e+01
3.995410675057313199e+01
5.610638402765191302e+01
2.874068095944705803e+01
-1.659194234473607255e+00
-4.866876937793333191e+00
-2.148320707702723453e+01
-5.207169898300823263e+01
-5.864131175781690075e+01
-5.758329000103563544e+01
-6.342045260856340860e+01
-4.087842360323134727e+01
1.432921861853647805e+01
6.342617325928137717e+01
8.259118222190761571e+01
6.295071194758761379e+01
1.662102889611248457e+01
-1.419675891213937291e+01
-1.166604729712136113e+01
7.140922698137307734e+00
3.678960818591742310e+01
6.347397054685883688e+01
4.715598039274527054e+01
-1.433238858089167600e+01
-6.856126770917830981e+01
-8.278626950580830623e+01
-7.539313479829949927e+01
-6.434480932057691405e+01
-3.450833827581681845e+01
1.765370133974156275e+01
4.874497437781955966e+01
3.574679980185456429e+01
2.283362551609371494e+01
2.788258658372339482e+01
9.672749513221363671e+00
-1.286539040797600464e+01
2.708591571991942715e+01
9.753351022129029957e+01
1.140973171473117986e+02
7.696087394388902680e+01
1.132714942679132619e+01
-9.125952838274309897e+01
-1.809261947423244408e+02
-1.780686412712451556e+02
-1.016394901775174446e+02
-1.533892109107301494e+01
6.268370796040719028e+01
1.016847576745444570e+02
6.780545314599012841e+01
1.672887696570987970e+01
1.506008936330196413e+01
3.085332224093217235e+01
2.987341056186782495e+01
4.126608866594428804e+01
5.352450490309831821e+01
1.949810824597062719e+01
-2.849693774372560995e+01
-3.473923089358769545e+01
-2.853440385176490324e+01
-4.606243018387386456e+01
-5.838080234955764780e+01
-4.994364921103765909e+01
-3.837056397985339373e+01
-1.687861610518471878e+01
1.760174517679929451e+01
3.855699863657510917e+01
3.904805191562114430e+01
2.876517622091783366e+01
7.760954314136761845e+00
-2.362753985537152879e+00
1.884747067574618029e+01
4.048035439746607977e+01
3.999511886190211385e+01
3.782023808653884345e+01
2.625329119396855404e+01
-1.580525293457640146e+01
-5.253065139075150825e+01
-5.071890642679458949e+01
-4.235777015090353359e+01
-5.114968206937293616e+01
-5.028126177037077582e+01
-3.091160773086902225e+01
-2.000733695846746585e+01
-1.337231913528665217e+01
2.508751271394127258e+01
8.048701899382906788e+01
9.478699736538256104e+01
7.186379418057987323e+01
5.745814336430849778e+01
3.569241782501765670e+01
-1.604686236814093903e+01
-5.001515869403316117e+01
-4.437482101378662236e+01
-4.492945277358155920e+01
-6.078972633862094455e+01
-6.195765196860850210e+01
-4.790449461015182209e+01
-2.215684967288187934e+01
1.596385143708392818e+01
4.501578393769604247e+01
5.745106413443815541e+01
5.865288836394302763e+01
3.554587914445062324e+01
2.322563280946294384e+00
-3.888366081806721830e+00
5.095354832363846675e+00
3.507287042211405748e+00
-8.608586137157064888e-01
-9.885583227958562702e+00
-2.377047632356766727e+01
-2.176766757199124314e+01
-1.801188588869092300e+01
-2.632433104987921979e+01
-1.287296938265396840e+01
8.001755455816732976e+00
-1.019829554419388984e+01
-1.753369325916159127e+01
2.878188506448957540e+01
5.101941160524124541e+01
2.188687406760557153e+01
1.377927807180467923e+01
1.417414788973576023e+01
-2.537182516334442184e+01
-4.067532535993530729e+01
4.547749471321380632e+00
2.846983546006905286e+01
6.719621432521916127e+00
-5.667685118590423343e+00
-1.764690376572388786e+01
-4.925845752816611878e+01
-5.048051338144413336e+01
-6.207173224731274530e+00
3.661256288939834036e+01
6.247059337810989632e+01
7.205421379556123895e+01
5.226265847904242179e+01
1.671240716274138194e+01
-2.507370471470138185e+01
-8.109173151412480252e+01
-1.083905032779335897e+02
-7.572722760155967592e+01
-3.839529599439090646e+01
-4.903769259727384089e+00
7.699529841177896117e+01
1.424713639205293987e+02
1.022175489761271621e+02
3.193636526642440643e+01
6.919978720011318529e+00
-3.024982929641016582e+01
-8.345397215577114025e+01
-7.683411912473967220e+01
-3.204039073689375527e+01
-1.955759830569481039e+01
-2.501952450611902634e+01
-9.903674539946742073e+00
1.572477218872878879e+01
2.808411180619393122e+01
2.676179107670293789e+01
3.099714604826772657e+01
4.373496823829410118e+01
4.431064206196592892e+01
3.131661765447635304e+01
1.407984626926705296e+01
-1.711641602444601418e+01
-5.527104119991786746e+01
-7.861057251140644553e+01
-8.547668622746815004e+01
-5.899011310898984561e+01
1.205154432760658878e+01
7.010906440338764867e+01
7.456627262859174721e+01
6.009918121512367151e+01
3.806895319359619378e+01
-3.864219947056077853e+00
-3.527107179876472287e+01
-4.027020807023668425e+01
-3.287694296947211825e+01
-9.990546008530770905e+00
9.167894523316638455e+00
7.009705135457465985e+00
2.163803971630316170e+01
4.200398478016614945e+01
1.065797125098613307e+01
-2.924356127268597305e+01
-2.589558081044931370e+01
-2.949959821190167020e+01
-4.268650114935982742e+01
-1.695569050938331301e+01
7.131942398568265062e+00
3.497645131384129691e+00
1.751206349339363300e+01
2.783023447520088922e+01
1.506743807233963750e+01
4.215314478802653042e+01
8.442991780346009989e+01
5.951626235577006696e+01
1.258683355015478078e+01
-1.015027262857536172e+01
-6.463580855907781597e+01
-1.352556656472954728e+02
-1.435022249152418112e+02
-1.009649301762899398e+02
-4.033846910794418505e+01
4.277550412587645212e+01
1.153700945879844824e+02
1.467394878288046414e+02
1.471108013257361620e+02
1.029303589082821162e+02
1.667267451923346755e+01
-5.021242686221025764e+01
-7.945289551690417795e+01
-1.047394806680301542e+02
-1.110435327670383998e+02
-7.260489395125092926e+01
-2.182693401613448714e+01
1.431657981527165546e+01
4.517297237167643686e+01
6.492681556045468483e+01
6.247281203732904942e+01
5.049521635838179634e+01
3.212751399899234173e+01
-2.201690228488094370e+00
-3.236580115540518676e+01
-3.694307483460704589e+01
-4.044480822976197487e+01
-5.524539594362426698e+01
-4.306259323237133430e+01
1.528504471195867964e+00
3.310620099629964130e+01
4.556470207487870994e+01
6.199469345746845761e+01
6.657947205184896688e+01
4.232857965772434738e+01
2.058407470002788120e+00
-4.489446011634642275e+01
-7.936500730319222896e+01
-8.071863621977414027e+01
-7.014321025606373894e+01
-5.196702791552334588e+01
8.739151047826483776e+00
7.757627419722714990e+01
8.143936582096904431e+01
4.718234338581542886e+01
3.312871977378620159e+01
1.657552535891050027e+01
-1.919221395189664747e+01
-3.384410123887641930e+01
-1.697464372076754557e+01
1.242489122479625951e+00
4.198366320935503104e+00
-6.148481428356304512e+00
-1.453293907311016575e+01
-9.398479736891566461e+00
-9.726227276703848901e+00
-2.909267484832112771e+01
-3.649101406960269856e+01
-7.869164425238449390e+00
2.413895562592713162e+01
2.337786427360305552e+01
1.479405233057694780e+01
3.018297946578240598e+01
3.105991806530296273e+01
-7.655176111645457304e+00
-1.690382058936216225e+01
2.688166705833561565e+01
3.559022616806628747e+01
-9.554015419850557578e+00
-3.394214914443475095e+01
-3.626586825839169848e+01
-4.633260991313279931e+01
-3.016746108028059581e+01
9.454811722770422477e+00
2.791802494242125476e+01
3.218295682499964983e+01
1.673603214201887113e+01
-3.418321328172380191e+01
-4.980306256529105013e+01
3.668699608754113495e-01
2.916985897071271694e+01
2.650193801753742306e+01
5.221625901797640523e+01
5.586708179674500485e+01
-2.512940632709665056e+00
-3.888677971137811085e+01
-2.753443016304804658e+01
-2.539606725648433994e+01
-2.328674372762064948e+01
-4.148948712879348300e+00
-3.994754343276304409e-01
-2.532911143278748334e+00
8.040280763564048527e+00
7.002321707569829634e-01
-1.883803891462835978e+01
-1.656156674323528932e+01
-1.371685262590376020e+01
-2.308295304169487849e+01
-9.166276525036906264e+00
2.942298826296757852e+01
6.163947369022700684e+01
7.677971561550906188e+01
6.770131885204159516e+01
3.192404991923486435e+01
-1.268762002621312668e+01
-5.311992856640937077e+01
-7.903720481726162461e+01
-7.578891087906922053e+01
-5.555004500039467530e+01
-3.951502751915404588e+01
-2.272381682545935533e+01
-2.684319139691270895e+00
1.712424631335726843e+01
4.729132401227492721e+01
7.546578154429381868e+01
7.249624933858855513e+01
5.065159621155177661e+01
3.112254716300155977e+01
1.874355912721176853e+00
-2.982074979549656746e+01
-3.499003919726280998e+01
-2.719568725634471207e+01
-3.665285044665672132e+01
-5.374269075171739729e+01
-5.419431725598312966e+01
-3.066114713038141204e+01
8.945926892805582398e+00
4.270138517850590887e+01
5.159476016724435965e+01
3.632722003402542299e+01
6.675005427136953884e+00
-2.239358203323193308e+01
-2.920932923975326645e+01
-6.622003802217041546e+00
2.682421652579356319e+01
4.312241904553370375e+01
2.695740808004639177e+01
-4.979033715138958982e+00
-2.128275025777744389e+01
-2.001100995114826731e+01
-1.798465671469125127e+01
-1.327498543340512782e+01
-3.101451358590369356e+00
-2.638787336019499108e+00
-1.555429200068897266e+01
-2.145228466216967789e+01
-3.560264447114276365e+00
2.361100987181613320e+01
2.163567327586478584e+01
-1.186498806469015221e+01
-2.507006333634216588e+01
-4.513800569992862499e+00
4.628312109116524020e+00
9.050842691894898095e+00
4.811693023472241748e+01
7.521702173057987295e+01
3.436912681865753427e+01
-2.217863731848443720e+01
-4.173281710574028835e+01
-5.463465044433094420e+01
-6.761040798692131659e+01
-4.483224126224398276e+01
-1.660168248795840018e+00
2.279701740976905100e+01
3.074214259995218868e+01
3.030162589354242186e+01
1.653170621360066050e+01
3.967956464986358567e-01
-5.568819742597955091e+00
-5.323406492919870558e+00
3.368542866394901303e-01
1.511905887852507391e+01
3.019397125970644424e+01
2.788266699633389223e+01
3.913735538683793980e+00
-2.143290522099347228e+01
-3.418987330140131320e+01
-4.679290316013776874e+01
-5.483715531933275855e+01
-3.286061689491068449e+01
5.634196135977887820e+00
2.929564117783109722e+01
4.508849958442073103e+01
5.376876430919461569e+01
3.500703281683637158e+01
1.020269325420836282e+01
3.244247566684118844e+00
-1.121150282094579964e+01
-2.945095870560970752e+01
-1.974348263396075609e+01
-1.410784232798758708e+01
-4.011351984739192034e+01
-4.707475141512524175e+01
-1.843552866350601249e+01
1.176148541034204742e+00
1.680826394801558976e+01
4.981530768523226982e+01
6.607705369797075434e+01
4.888387577392423111e+01
2.012112280950157484e+01
-1.641747967666413999e+01
-4.506697458780092092e+01
-3.882117665209865720e+01
-2.471550951307212429e+01
-2.632564978476391815e+01
-7.560941575258327774e+00
2.500366214890959782e+01
1.277535422237805207e+01
-2.295787502631514343e+01
-1.821882752643483983e+01
3.376000056018519047e+00
-2.648180746414773523e+00
-2.212815429136844259e+00
3.049604546758786228e+01
4.836462859304141659e+01
2.835446958081423219e+01
1.106561828781967094e+01
9.143517926915826877e+00
-9.026982394474769578e+00
-3.997981287065844924e+01
-5.092389442085929119e+01
-4.268427240291166669e+01
-2.774325039315808894e+01
3.117393855556633842e-01
2.882365165464698720e+01
3.530484686384045290e+01
3.037362170759641700e+01
1.893465435127555452e+01
-1.372243138250150274e+01
-3.837428819340217956e+01
-1.931685202697028103e+01
6.023657245445322772e+00
6.971315699543642275e+00
1.954808827921353043e+01
4.009326105789814676e+01
2.113333433870251454e+01
-1.133345106576079253e+01
-1.174759525044779807e+01
-1.407325527901221562e+01
-3.834547359552493617e+01
-3.681263113534668463e+01
-4.864853374994593693e+00
1.025078554914176365e+01
6.661996194092967727e+00
9.501779813613840275e+00
1.230962532513042973e+01
1.876891623776964391e+00
-1.366060567719571495e+01
-1.236131252094782162e+01
1.217388016245556770e+01
2.297110739636606169e+01
-9.575820080968389103e-01
-7.462954376602998430e+00
2.310279537710923492e+01
2.325097872996288473e+01
-8.744651513013456778e+00
1.825928233339683127e+00
2.263799366321369888e+01
-2.345351011350194526e+01
-7.103989619572537606e+01
-4.142499331553005248e+01
-4.081276761330323577e-01
-2.936949993229074352e-01
8.853686975559643457e+00
3.094088436698071476e+01
1.983178124813038323e+01
-6.958826513820026705e+00
-1.531783744546504167e+01
-9.499514804972040594e+00
9.805997952293651565e+00
2.677019832416500478e+01
1.387228758996500844e+01
6.758195140321768157e+00
3.728369574497074979e+01
4.751948932993700936e+01
1.384332630855911717e+01
-6.959006674676130544e+00
-2.527663390064160964e+01
-8.599774215942292699e+01
-1.317286810624150064e+02
-1.031658902172193137e+02
-3.704723783825705397e+01
3.420364405059876134e+01
9.881782519330778314e+01
1.157767026865034694e+02
8.915650106770038974e+01
6.230495325480901414e+01
2.123605877716943624e+01
-3.532591830641567299e+01
-4.929553699389119004e+01
-3.361319918268562645e+01
-4.927061121007817945e+01
-6.112273562031850815e+01
-2.076331485899919826e+01
2.320495510857875132e+01
3.314216995217577733e+01
3.262908866206792879e+01
1.949070329797496726e+01
-1.687846723790001136e+01
-4.430544472788407262e+01
-4.235705650955024026e+01
-2.575189103581593031e+01
-2.666193197514022728e+00
1.917525177907031519e+01
1.964646411331323250e+01
2.535622018877595529e+00
2.060642748772294031e+00
3.234919631366265946e+01
6.231581891021667730e+01
5.972636621896257481e+01
3.856421159931481668e+01
2.626722087939661776e+01
6.243042123013022859e+00
-4.609129853683551659e+01
-9.662537530364893712e+01
-9.965291015176975975e+01
-8.251300431173524430e+01
-8.943553669815638330e+01
-7.629480028088985932e+01
1.234939250197453653e+01
1.073052162764201540e+02
1.153165664646788287e+02
8.289509242098240804e+01
8.562647480833999225e+01
7.500901250536009002e+01
6.423254034845919946e+00
-4.246284180764300942e+01
-2.132379602791554873e+01
-4.663339586702807793e+00
-4.755576306805035358e+01
-8.780276394892406699e+01
-6.026930668462343021e+01
-1.262940343143467636e+01
-1.983570322670015784e+01
-4.264216880670995380e+01
-7.237950143679205972e+00
3.689745690624801000e+01
2.146224866967821399e+01
1.050576614985158308e+01
5.435134584562542415e+01
7.114791451847904113e+01
2.179226952412405538e+01
-1.703269366592981271e+01
-1.362229897907448084e+01
-8.948054605340420409e+00
-1.125849444570118507e+01
-5.438545769290820786e+00
1.803950547170164898e+00
2.743011443927353632e+00
-3.360121056082641999e+00
-1.166015145285348886e+01
-9.179404294237254902e+00
-1.880109241861324776e+00
-1.107697940271762072e+01
-3.487390083921456352e+01
-5.450496415287506835e+01
-5.388135389421832855e+01
-2.426709437726473340e+01
1.575930006565659980e+01
4.135209204886677270e+01
6.434639893145852341e+01
8.738917392486735025e+01
7.322126040390364210e+01
2.637829215635993663e+01
-1.697455794337004553e+00
-1.183986290843608913e+01
-3.763360595461021774e+01
-6.096542379286999846e+01
-5.295909303278628499e+01
-3.578328870119970162e+01
-3.622269563906811385e+01
-3.729466114462576343e+01
-1.479217801216443817e+01
1.504362834161993234e+01
2.317429373495393463e+01
2.395140630295448148e+01
3.936271848981171217e+01
3.858942521958451977e+01
5.838592532249744060e+00
-6.904155821174034813e+00
1.517647122784452129e+01
1.978335861947430985e+01
6.230410798667252337e+00
1.312815424742266934e+01
1.229191180632015801e+01
-2.780208639826001615e+01
-5.768193120498119697e+01
-4.205216316810165722e+01
-2.258844719686889135e+01
-2.447958588906065458e+01
-1.588687758351883339e+01
1.190876748801759355e+01
2.089589402171544918e+01
6.697296611008315637e+00
1.456856143910147772e+01
4.358268931709378791e+01
3.824845910709939290e+01
3.707958669389835205e+00
-4.091590463923663101e+00
-5.855034810358092923e-01
-2.636564802468231150e+01
-3.753412222161046685e+01
-1.570376920611210814e+00
1.569479159765051612e+01
-1.499077828699128112e+01
-2.465811678999217094e+01
4.727235153520007671e+00
8.039273388047584845e+00
-1.394500084149535013e+01
3.418468207223702038e+00
3.712486107599840324e+01
1.260363456987472652e+01
-3.436230553116207176e+01
-2.108111819276417265e+01
1.348477069572979481e+01
-4.431133033832835189e+00
-2.494688530130002846e+01
1.341590077258473812e+01
4.624383063820823736e+01
1.396039000012347664e+01
-1.820824250114637266e+01
5.290572929724652873e+00
1.811470466082544561e+01
-3.276774041238281399e+01
-6.821485387862738037e+01
-2.156163750688948966e+01
2.627848785808808074e+01
7.233813950340484134e+00
-2.987332376311127025e-01
4.320711915229116329e+01
4.079605427534071538e+01
-2.372953392103341841e+01
-3.913421166891752989e+01
6.007416124531288482e+00
1.857019963647026373e+01
-6.664403554528114171e+00
-9.217834022377040526e+00
7.483010882244513162e+00
5.034900378896995932e+00
-1.748291538469323569e+01
-3.101626774772845252e+01
-1.559789163096313125e+01
5.331582716405177891e+00
-5.861354617785305088e+00
-2.448538236443229721e+01
1.895427380058069655e+00
4.408583684564003136e+01
3.447721018108955349e+01
6.235775721344547495e-01
1.351961356882867271e+01
3.759453783492493528e+01
2.216426864246658912e-01
-4.460402544652648515e+01
-1.611440422962053631e+01
1.841732770637479177e+01
-2.095562323451316900e+01
-5.502375332900438565e+01
-1.518535757082256410e+01
7.440435949797866044e+00
-4.064264370867988418e+01
-5.851234912795031562e+01
-1.164503425404630033e+00
3.687306967023130255e+01
2.766261485525824426e+01
5.201650589314771622e+01
1.018271006257049294e+02
8.641460692308434943e+01
2.264677957403774045e+01
-1.014325217230105913e+01
-2.935908844221722802e+01
-7.175273810209525038e+01
-9.630310352243398597e+01
-8.675115534459703781e+01
-7.787715144840680637e+01
-6.098504523366447927e+01
-1.769857662102684870e+01
2.981973295974128035e+01
7.583857654108253143e+01
1.175357287675365257e+02
1.187576813423019644e+02
7.816885536126822842e+01
2.938085852779045837e+01
-2.419179488310437165e+01
-6.856332321458938850e+01
-7.313250175149265431e+01
-6.168963353595504628e+01
-5.732777391340759010e+01
-3.215444999385453428e+01
-3.507877883002996633e-01
-3.003254020808405755e+00
-3.750787384067644226e+00
3.156219230796948594e+01
4.832566915100766636e+01
2.051806698388547545e+01
5.775054509169983419e+00
2.006980943813749363e+01
1.202919393993530761e+01
-1.748986912744577893e+01
-1.452099514162688543e+01
6.423474091768619942e+00
-1.126607176515169861e+01
-3.512178733790592844e+01
-8.628218184711339944e+00
2.176153230091465929e+01
1.302376990660968836e+01
8.503040875052471748e+00
8.059041746956925323e+00
-2.685343833180011686e+01
-5.058040369574315065e+01
-2.832988302983365259e+01
-8.679734181394316295e+00
8.426516013004867744e+00
4.756810732670282249e+01
5.251470545985200289e+01
1.101271648534966374e+01
-4.217482621208919369e+00
1.101579353039436215e+00
-2.012401901382120428e+01
-3.086592832339153958e+01
-9.651189928128669493e+00
-2.031064782958671877e+00
-8.195683475537839158e+00
1.340555275357397713e+00
1.056904494193108413e+01
4.194322197121906015e+00
-8.979079347515980913e+00
-2.377384087590897721e+01
-2.495252084310423157e+01
-3.201583491531921677e+00
1.876795288743467083e+01
2.776908899358447158e+01
3.074665829139424744e+01
2.044373785275628563e+01
-4.264034344728742987e+00
-2.259972636907932042e+01
-2.265627708218750769e+01
-5.440638756690315603e+00
1.383694225380804887e+01
6.621133152045766579e+00
-1.607281992074500465e+01
-1.600351777116464547e+01
-1.285124748471799805e+01
-3.327156912165965963e+01
-2.823499248267907191e+01
1.385882721717130117e+01
1.602909538530925104e+01
-1.591518636284687815e+01
3.902215878311249497e+00
4.658887316438743653e+01
3.706408619452124498e+01
2.217217434402526166e+01
4.260516479717918514e+01
3.271927377217538435e+01
-1.998383345645967424e+01
-5.009631924049408980e+01
-5.204118554824800924e+01
-5.315464220820609853e+01
-4.893564400856077867e+01
-3.987105468432601896e+01
-1.948828167640011344e+01
1.782792998869179968e+01
3.218179524482988541e+01
2.402971222189683331e+01
4.667269860128113379e+01
6.287151702515161844e+01
2.042840192336840133e+01
-7.949259009645722962e+00
8.831283771008168415e+00
-2.743220157518159397e+00
-2.399688806346513559e+01
-2.951686923967135279e+00
2.368413132533971677e+00
-2.332048714209915730e+01
-2.468319646012663782e+01
-3.048786810582618045e+01
-5.668254167667875976e+01
-4.088389724839368711e+01
-6.889503874133334982e+00
-6.812952784808979700e+00
1.131260924483979835e+01
5.494955734332129538e+01
5.995867905263113329e+01
4.782484212328209594e+01
4.949006730585721670e+01
2.581265267021327148e+01
-1.565227950548609392e+01
-4.261624288452397025e+01
-6.549670330200927992e+01
-5.904535808516526885e+01
-9.149625395331627331e+00
1.678443111852866920e+01
9.553658353584589591e+00
2.067017118857176783e+01
1.453076431738909591e+01
-3.340379651007512507e+01
-4.299429461394308305e+01
5.776088985600348558e+00
3.762271044928285590e+01
2.807641685385108943e+01
5.987453256606539931e+00
-1.606807784457436483e+01
-3.839527688356374568e+01
-5.390762512770225356e+01
-2.955887334896191376e+01
4.304941532008355409e+01
8.651798340807040688e+01
6.016935856215189915e+01
3.444729103706220741e+01
2.289292995237761019e+01
-2.757043147939544525e+01
-7.001179819614561950e+01
-5.401307970392401359e+01
-4.296107117276503118e+01
-4.967196303647797606e+01
-1.651808023420367277e+01
2.232069705212651556e+01
2.325943083531228339e+01
2.889774149219847033e+01
3.249510401457498432e+01
-1.055480111652234143e+01
-4.771154119237333191e+01
-2.766524013189091846e+01
2.883241051373929054e+00
1.898922329972254630e+01
4.984183237585375537e+01
8.044036994569918875e+01
7.263992478022218791e+01
3.621365578864286050e+01
-3.101492135236918468e-01
-3.565291906508412012e+01
-8.237214796447982224e+01
-1.257980527575595886e+02
-1.237986208739860672e+02
-6.883172588953021886e+01
-3.173695750347381939e+00
4.760615509477959506e+01
8.407884935804112558e+01
8.763043895016603813e+01
5.002077576495504729e+01
1.070289190649502764e+01
2.158601748027739298e+00
1.045931515930434941e+01
1.445492850463874923e+01
1.016894607180009480e+01
-3.643129546948548736e+00
-2.481736545789223669e+01
-3.790090565325664329e+01
-2.943232317931601116e+01
-1.113915817101845818e+01
-5.695254605706479012e+00
-1.222619166530703438e+01
-1.608592928659098575e+01
-2.045858997856340977e+01
-2.770274891245178495e+01
-1.794185059953675676e+01
9.387864878677696368e+00
2.133443894530106277e+01
1.377755415873966882e+01
1.910381406758872558e+01
3.320900808976345076e+01
2.056554682250044408e+01
-4.017142553642587544e+00
3.119732888707108742e+00
2.457407840989507619e+01
1.941880335108950462e+01
1.016950258284849973e+01
2.384241548014408352e+01
1.785792841684980914e+01
-3.317137352369507397e+01
-7.425886055553408482e+01
-7.286326821332019676e+01
-6.715489722267446382e+01
-6.865930189954019625e+01
-4.300639131490996192e+01
5.051857760642230133e+00
3.831892832803448812e+01
5.592624772699306135e+01
7.490752417527015439e+01
8.508216767367984801e+01
7.081273039174345740e+01
3.693262048643443052e+01
2.021380323696487569e+00
-1.185053236448060510e+01
-5.854529607634495036e+00
-1.247582764587937909e+01
-3.929338876401227054e+01
-5.506590405485805206e+01
-6.157204940333854637e+01
-8.397923870778633670e+01
-8.994474418968353291e+01
-4.434632311179618114e+01
5.871107004523773654e+00
2.190347814129945192e+01
3.886476016813639234e+01
6.580622103469515594e+01
6.803051498710746614e+01
5.831640398549463811e+01
6.502362793080439474e+01
6.807411628571348672e+01
5.337894262784836030e+01
3.009211228106212843e+01
-1.308001630674847426e+01
-7.372656852139401451e+01
-1.183046603236272176e+02
-1.373847150970017879e+02
-1.322086050747348622e+02
-8.322654045891368924e+01
-3.551928852867485276e+00
5.677507496815088217e+01
8.080150963366794770e+01
8.141560482566660539e+01
6.583689675811405095e+01
4.742161718861020603e+01
3.758743343723492814e+01
3.065293737790549855e+01
2.156421175871156493e+01
3.836156923563679655e+00
-2.611476384130457262e+01
-4.416570232492418313e+01
-3.794842655552744048e+01
-3.677405521727080639e+01
-4.508226607945217523e+01
-3.884443111098655521e+01
-3.577192822531138461e+01
-4.476015381921113345e+01
-1.807527374619558103e+01
3.931011027761940824e+01
5.855735098613558876e+01
4.506036101184760412e+01
4.623740525360474862e+01
3.322363393101029061e+01
-1.186049935094787244e+01
-2.438433279451655622e+01
5.333532983588284537e+00
7.321053280002490560e+00
-1.681790425699403002e+01
-1.299620903939059602e+01
7.127511754691533419e-01
-8.116353555515988916e+00
-1.164011947320352647e+01
-3.082763979685821276e+00
-1.384825311926262614e+01
-3.083569638772024035e+01
-2.570876248777088335e+01
-1.372446941451990376e+01
-5.738537617589047457e+00
6.537185501101301810e+00
1.076929683845528096e+01
1.976699220431790582e+00
1.299040892916195400e+00
1.570893329843622688e+01
3.872137308372882103e+01
5.807161896631944131e+01
4.719134080898156469e+01
1.443709014757169840e+01
-4.920036318969140510e+00
-3.097077112419338007e+01
-7.464430542618570996e+01
-7.174733117618639255e+01
-2.791161775692003744e+01
-2.904439821350162987e+01
-4.628796061774259130e+01
-5.462018359746657836e+00
3.324731900640431093e+01
2.071343298805362565e+01
2.658027063337092954e+01
6.311249781365712863e+01
6.700988585189668356e+01
4.166044824316581696e+01
1.888772781780744126e+01
-3.906498502869973244e+00
-2.812902342268992228e+01
-5.929247389421175995e+01
-8.345714021123748694e+01
-5.513973255619556824e+01
-6.828360298976919651e+00
-8.416342847372412450e+00
-1.257465772922083858e+01
2.154078297747802750e+01
1.866587450157204486e+01
-1.113991975605349793e+01
2.716516127482469756e+01
8.626851284581762513e+01
8.149782133946135332e+01
5.725937299893756460e+01
3.012931420502838620e+01
-4.763095128466315487e+01
-1.305466276306156885e+02
-1.518008384693970072e+02
-1.280464069883630884e+02
-6.728789204064774765e+01
3.140540715547290063e+01
1.141893978248238568e+02
1.468486047227233655e+02
1.381105040876624344e+02
8.225296640912782209e+01
-1.505120579860919960e+00
-5.852329174428643199e+01
-7.500844439772102135e+01
-6.678011946333373317e+01
-4.121232445759046215e+01
-2.046041982715981788e+01
-2.019939904119323870e+01
-2.658948894736120394e+01
-3.218526205764788983e+01
-2.908422404065526123e+01
3.756397729068057245e-01
3.795962342655266752e+01
5.144245202068042033e+01
4.916596319000871063e+01
4.291415887839568910e+01
2.700651021853222034e+01
1.276947380873659377e+01
8.238661716461292528e+00
4.038021848442160611e+00
-6.335372575727982181e-01
-1.453713287026004153e+01
-4.597723831853303977e+01
-6.502751323892512403e+01
-5.618969904570645468e+01
-4.911695442134897860e+01
-4.298125095420586206e+01
-9.755262334157459136e+00
3.218754497951887572e+01
4.979370368103382560e+01
4.964280928367422518e+01
5.224557328140774359e+01
5.897645575887678859e+01
4.890834884497745350e+01
1.678128093990528313e+01
-3.135491950598169542e+00
-1.201628003640582065e+01
-5.428629662497844777e+01
-9.934732742902448877e+01
-8.427144995000485039e+01
-4.167414922296341473e+01
-6.080437672657054371e+00
5.184729853160261825e+01
9.973355828061342265e+01
7.858484384874464013e+01
2.597186392469028604e+01
-1.441082141589768817e+01
-5.281145810068575486e+01
-6.858867119461741879e+01
-3.877215697827215735e+01
2.994311295370368775e-01
1.339095682819385758e+01
8.924852526713586087e+00
1.307029590999641755e+01
2.882483390019610070e+01
2.395320462859801225e+01
5.715209474109862242e+00
2.145701138711471856e+01
3.914811434056154837e+01
1.100908212563366106e+01
-7.039457863640002699e+00
5.381007643547611963e+00
-1.438487126944421490e+01
-4.978917257996114643e+01
-5.485082575296335250e+01
-5.033374048776218501e+01
-2.970180220409170602e+01
7.982564105049457126e+00
4.992640269019984700e+00
-2.176000845057784261e+01
-1.538183282575162103e+01
1.956725080606914524e+00
2.700837899747134330e+01
7.725520509568748651e+01
1.035820054924450062e+02
8.653705552028107206e+01
4.311270941971434922e+01
-2.281866547996797578e+01
-3.415377607400095883e+01
3.166003115973602178e+01
3.872240061761873164e+01
-2.753546979971881115e+01
-6.883964439231215238e+01
-1.312285387810171073e+02
-2.026794796271787220e+02
-1.491679569776606513e+02
-3.306139366092850196e+01
3.480367202151906270e+01
9.865635384276428965e+01
1.239657693187370597e+02
7.525195646028346630e+01
6.560538158421486798e+01
9.174956164420109417e+01
8.491741379525345224e+01
8.743704733567524556e+01
5.894944129898689766e+01
-9.299170730638742555e+00
6.313672730611559203e-01
-1.399552013758921554e+01
-1.318765328470050235e+02
-1.252528185690811284e+02
-3.776887986881252601e+01
-9.214747279369214539e+01
-1.025278737733000014e+02
-3.282879491370476188e+00
-4.211793511015477520e+01
-1.076877539978830924e+02
-5.231491461924908037e+01
-2.506155155248088207e+01
5.465421388531153468e+01
1.981921381848044916e+02
1.363895278517255463e+02
3.914240054154299742e+01
1.274333001487575814e+02
1.735069470916173202e+02
2.273694274806851752e+02
3.120919592546288186e+02
5.292454796864396371e+01
-2.561263118114541726e+02
-2.432832607406680268e+02
-3.880205845302757552e+02
-4.080452591298136440e+02
2.782974061192126101e+02
4.683858596852593905e+02
-4.270230469599981689e+02
-8.124001639152526195e+02
-4.562250444617664016e+02
-4.883648583490198121e+02
-1.740792518774864561e+02
1.063920844290347759e+03
1.621292955246855399e+03
8.586513625378869392e+02
2.763294846776245350e+01
-2.381492013884613925e+02
-2.391644552284296594e+02
-2.108756796376108298e+02
-5.267271293478589200e+01
2.741576653919691466e+02
-1.390578929088895066e+01
-1.077615465876065173e+03
-1.236180121530612723e+03
-2.229285361041809210e+02
9.399155671814048674e+01
-4.836936316870318819e+01
5.302877847420973012e+02
4.541455340154734586e+02
-5.853355341744528459e+02
-4.077690330937874137e+02
7.119036399454101911e+02
9.376962078723577179e+02
8.369902765717503144e+02
9.294449519677266380e+02
4.008836405937919380e+02
-2.376219293619293467e+02
-3.520389890646038680e+02
-5.707909054665411759e+02
-6.988261331722708292e+02
-4.581203166529153918e+02
-8.029921857680022867e+02
-1.332697444519855935e+03
-5.745751762158803331e+02
5.279988844818238931e+02
3.506125796355128728e+02
5.054669938841436050e+01
8.329510906564669313e+02
1.063692095755603304e+03
3.958369605467471075e+01
8.855740028091683769e+01
1.393453598558004387e+03
1.061730470722056907e+03
-4.445482407454953204e+02
-3.922505811199867480e+02
-1.387038518823713957e+02
-1.240801665186492755e+03
-1.299220659346230605e+03
-2.336300737952374504e+02
-4.633480814178897731e+02
-6.120919245792875927e+02
3.712785958528777996e+02
1.580889279662067111e+02
-2.901858447305497180e+02
1.011045584679234025e+03
1.250766780272987717e+03
-1.227295192367738537e+02
3.036910830583877328e+02
1.138950474557326288e+03
-2.065697642256470488e+02
-8.854619020020808193e+02
1.455398944510782826e+02
3.006253525252429171e+00
-7.723564981618958427e+02
-3.175495088110909023e+02
1.033057878402666461e+02
-1.352212403474265159e+02
-1.601554045083154563e+02
-9.222873327601924132e+01
-1.428969562937779614e+01
5.023809957135241433e+01
-1.952058273007880302e+02
-6.053679595240430444e+01
3.597000809470297327e+02
6.547048905708599875e+01
1.040873957204977245e+02
8.532267434089819744e+02
3.759377994737578774e+02
-4.854838818477212499e+02
1.588358283171047276e+02
3.179413590480865537e+02
-6.788594658584169110e+02
-3.000921253637553718e+02
5.359060507586910944e+02
-2.840909990786038293e+02
-8.853186427845724893e+02
-3.107041238374336558e+02
-1.918141617180548337e+02
-1.324679890480187794e+02
5.300200146604814790e+02
7.080613977763713365e+02
5.682881325574013545e+02
5.537321042583492954e+02
-7.356626345571611125e+01
-5.907886398755493929e+02
-2.099652685663040472e+02
-2.315726712282341566e+02
-6.430276239740887831e+02
-1.462156039304344688e+02
3.756920029922517301e+02
1.416900341976432287e+02
2.686669978356660522e+02
5.764698208176080243e+02
8.539925937952810386e+01
-3.867923788996890266e+02
-2.183740709987879711e+02
-1.531027240919390806e+02
-2.178720968920505925e+02
5.495495208325915826e+01
2.721333923816731613e+02
6.243744850305193950e+01
-1.980262919759560702e+02
-1.019211268980021856e+02
1.876503536645102770e+02
1.920714270103885895e+02
-6.009414242306671383e+01
-1.251496618591291679e+02
-1.170587731314964941e+02
-2.908569594485283574e+02
-2.095301094116864249e+02
3.082779924594518093e+02
6.136892396337834725e+02
3.884563100142047460e+02
3.742568910963750284e+01
-1.562222021353510684e+02
-2.695418805799539541e+02
-3.229147933945028512e+02
-1.920929380142200102e+02
3.848345633517573106e+01
5.472081415871127774e+01
-1.210922581667987288e+02
-1.620270811066966985e+02
-7.161021221514874924e+01
1.358647511842104372e+01
1.584862673324599882e+02
2.398963158592140417e+02
1.432656761436156216e+02
1.187267492450143607e+02
1.572641342212944267e+02
2.230665706501703482e+01
-6.773202828004066589e+01
-8.417849642256568288e+00
-1.131315762507672247e+02
-2.104196052997911863e+02
2.251392183748150444e+01
2.076981424534654650e+02
8.475158292844052710e+01
-5.747953631765904703e+01
-2.317844559071786534e+02
-5.377810431018967847e+02
-5.804073219073994778e+02
-1.804129605495281226e+02
3.008341985879284834e+02
6.184297379998715769e+02
7.234105513724663297e+02
5.399090713145977816e+02
1.605931042242038131e+02
-1.821892649562005886e+02
-3.503338536471977704e+02
-3.114973501282544248e+02
-1.640952542109132253e+02
-8.065658195965278310e+01
-7.750682544873247082e+01
-6.077938712820929368e+01
-3.445104095076994355e+01
-4.078299351215787283e+01
-5.544416246788345148e+01
-5.711098542222359242e+01
-6.576388464361477304e+01
-7.254170316786731121e+01
-1.037692137318775742e+01
1.398454946970034882e+02
2.718167591384860771e+02
2.968032499638738955e+02
2.570960920073275133e+02
1.904214827907661629e+02
7.894435834191209267e+01
-2.552895656473651087e+01
-7.753612123542188783e+01
-1.698534650336506502e+02
-3.383690343478301656e+02
-4.239587637191760905e+02
-3.428559849323114008e+02
-2.044390571426773988e+02
-3.950346717083476022e+01
1.904999342578861956e+02
3.350939590539284723e+02
2.746949496316377122e+02
1.792107838510580109e+02
1.567253286297419947e+02
1.048181099720444820e+02
4.915709781475737117e+01
3.869703486172207363e+01
-4.565849185758486328e+01
-1.395694715841034679e+02
-7.749060450588434890e+01
-2.492250255445124196e+01
-8.289457452634992762e+01
-3.929331094240391309e+01
1.093503269313105797e+01
-1.686087513770933413e+02
-2.792684358246810348e+02
-8.224899525066172146e+01
8.284981972894034641e+01
9.116235411026124780e+01
1.809699963592839538e+02
2.418868659784232023e+02
9.062653195764544023e+01
-4.922263008130968842e+01
-3.271913404285346161e+01
6.891542601687503655e+00
3.900969487286814541e+01
7.759575863324157297e+01
5.743924286198102180e+01
7.691301378216895301e+00
-3.026845440355611672e+01
-9.380676024302985638e+01
-1.428673167597892757e+02
-1.358345684048859141e+02
-1.308415908777265031e+02
-1.159364408560524566e+02
-4.357355702511516427e+01
3.130817281262217122e+01
8.985660569069204939e+01
1.621350835474304688e+02
1.911341835383028069e+02
1.591090886557264810e+02
1.354717172894708881e+02
9.768336327112983497e+01
-1.306246853996519741e+00
-1.028082832360301495e+02
-1.669151894644454330e+02
-1.995354756625038419e+02
-1.753253433343998893e+02
-1.058770784130322937e+02
-2.525030370949474090e+01
7.339650380412287234e+01
1.397558599113141042e+02
1.177564930350299335e+02
8.790850794936072532e+01
8.932725898930945618e+01
2.865832145934729525e+01
-6.558034608461429116e+01
-7.577689375726713195e+01
-4.795238666798859128e+01
-4.827300024732613792e+01
-7.612248970574818863e+00
6.759548918051503108e+01
7.125673814895949931e+01
1.662260535937110362e+01
-2.157061545923693302e+01
-4.846709167999059531e+01
-5.959873805171591954e+01
-2.361097513722281960e+01
1.914358242501479523e+01
2.666012414033983191e+01
2.556634055444627762e+01
1.749900586172497796e+01
-1.273568473977578108e+01
-1.364336769518794057e+01
2.942408431236269806e+01
3.680920066714778471e+01
3.858396788250367582e+00
3.654984964279483162e+00
4.881397590195743597e+00
-3.681920303024044472e+01
-3.579661847717285639e+01
2.206904201794938913e+01
1.694333052315795030e+01
-3.154284368391688176e+01
-1.498617502472449381e+01
3.288263747695829853e+00
-3.258468871525624877e+01
-8.953214872286052284e+00
7.219894161033032276e+01
6.974168059997971625e+01
1.716231832064406859e+01
1.875207042664794344e+01
1.046750520373650239e+01
-4.726309662755176078e+01
-6.012887872966824432e+01
-2.058044776462523018e+01
-1.167086601312738736e+01
-3.167909065736974839e+01
-3.111441949189451250e+01
-3.042549045691972154e+00
3.328993110949827638e+01
5.415215351605990435e+01
6.195808571867844705e+01
7.312236742313764637e+01
5.289532694833052773e+01
-2.029444905165621194e+01
-7.615043805621871797e+01
-6.867043116536710556e+01
-4.342582330094207066e+01
-2.966745454790501668e+01
-1.230647802465357366e+01
1.086710375697397524e+01
2.470400808684989613e+01
7.925118207173562190e+00
-2.031049335956187107e+01
7.453257208800822653e+00
6.896620909183272374e+01
6.258317073123643581e+01
1.690320413925692478e+01
1.982597050983348197e+01
1.086564934909668345e+01
-5.965242617011023185e+01
-8.638810205879218529e+01
-3.058441039313224508e+01
1.143738285647454056e+01
6.736648290284387386e+00
-6.542896459528502184e+00
-1.849466524542334511e+01
-2.202169738908228069e+01
-1.220488898030998293e+01
4.721155786714144931e+00
4.866747047500638956e+01
1.024715012378777885e+02
8.662612374423913764e+01
7.620537784888456123e+00
-3.342641180341330198e+01
-2.101577442072318291e+01
-2.366512266724601332e+01
-4.400027329179694391e+01
-3.720678089241166475e+01
-2.616437056221591817e+01
-6.209411452195217862e+01
-1.015215301361365334e+02
-6.146113262150635137e+01
2.167358091746608295e+01
6.419859659134289132e+01
9.786629124620149867e+01
1.560170699578575011e+02
1.690451560332573422e+02
1.312509503897455261e+02
9.878915651499387707e+01
1.471110551178509240e+01
-1.521787246847487154e+02
-2.754986595942320946e+02
-3.000314459724238532e+02
-2.767553304113149011e+02
-1.556495985975066958e+02
7.989030567417904649e+01
2.585856005982599299e+02
2.819335864214517642e+02
2.380962149525674079e+02
1.729534754439263793e+02
6.723622759629041923e+01
-2.819237228807469364e+01
-5.946038298110492093e+01
-5.611730101029701956e+01
-7.312552127061252349e+01
-1.228438869447662398e+02
-1.565624845555659306e+02
-1.290220415370982892e+02
-7.676930750432026684e+01
-3.936986961652643657e+01
1.648404452243511642e+01
8.921172197792085967e+01
1.156486180374592436e+02
1.027740038610871949e+02
1.049461584801769618e+02
1.027669483477875900e+02
5.812168269496722672e+01
1.975342367560208312e-01
-3.805121079780138160e+01
-6.790771297006418195e+01
-9.022528935823379470e+01
-8.163873705418519933e+01
-4.987257641459055435e+01
-2.999093255095985100e+01
-2.044756968005811260e+01
5.562904828232291266e+00
3.524581838865577055e+01
4.150157227933413395e+01
3.715611181045021993e+01
3.352519355196193374e+01
1.031429368055042239e+01
-2.866982255559389969e+01
-4.430256244946330924e+01
-1.943144722822022530e+01
2.298839971275551974e+01
5.179340409254631794e+01
5.810390362379896345e+01
4.823874236018424000e+01
1.634269227282182868e+01
-3.321519842330196326e+01
-6.233147140534828168e+01
-5.529799008140527405e+01
-3.855496748886350389e+01
-2.192462498151737549e+01
-4.582251333413164041e+00
6.455908474152555199e-01
6.746142306364089514e+00
2.580289374181901607e+01
2.779425249120221508e+01
1.323496142539074505e+01
1.284515305521405892e+01
3.678727430572573454e+00
-2.331522806182284668e+01
-1.408783928099519223e+01
2.691762028585995026e+01
4.549792852055506387e+01
5.003718705939186151e+01
4.396941750436405272e+01
-7.674865843811185862e+00
-6.779148002272047790e+01
-8.149032027338678574e+01
-7.614979322427724640e+01
-6.125168061178151646e+01
-6.597221210630328514e+00
4.646158767403323253e+01
4.704378868485490983e+01
2.861620697276736536e+01
2.475660393707328311e+01
2.662374526771290917e+01
3.388619458855614397e+01
4.271957752946865128e+01
4.072582174146452161e+01
2.919238709978280610e+01
-4.254451635493684769e+00
-6.422471900101821518e+01
-9.942843382327403390e+01
-7.777754762953094314e+01
-4.497314664946139118e+01
-3.272820118730206929e+01
-1.175240905432593230e+01
2.688867206884005157e+01
4.604448177126912611e+01
4.097659079433845619e+01
5.818919142014856050e+01
9.861423357175223714e+01
9.326791992276797316e+01
3.020268712041213277e+01
-2.160359448528809878e+01
-4.849734021795097760e+01
-8.306523338631180309e+01
-9.455430392230444170e+01
-6.048073120718262885e+01
-3.147420659990733682e+01
-2.266361225937153989e+01
-5.185427564727937089e+00
9.603634531524186002e+00
1.983422010966657822e+01
5.007261832157719539e+01
7.225244686194672283e+01
5.801725892923178662e+01
4.123952627178432806e+01
3.273989657557923749e+01
7.877867392187217987e+00
-2.132317476763382302e+01
-3.790565970982556365e+01
-4.950975174588786132e+01
-5.269317752845036296e+01
-4.518672818739160135e+01
-2.809005528805054297e+01
9.617047044329680716e+00
4.231719716047172142e+01
3.018905831579911592e+01
3.875957921697966491e+00
-3.944244857244972313e-01
-7.997658221784686106e+00
-1.716478020531299720e+01
3.807915206336336400e+00
2.735653507966176434e+01
2.133755680059410054e+01
7.269935283870737841e+00
-5.116437604986044718e+00
-1.890569258300102362e+01
-1.489069485287047101e+01
-5.961832224430131388e-01
1.635692781269956875e+00
1.324393015740901625e+01
3.857893967750224107e+01
3.416599672570074375e+01
7.955987580024891592e+00
7.910574341195636627e+00
7.616808108983931902e+00
-3.570853002044648150e+01
-7.057708500251145267e+01
-5.391747969804002594e+01
-4.512113096031101378e+01
-6.926580306204081694e+01
-5.732859850120225786e+01
-1.296885984368095768e+00
3.343416015801018659e+01
5.127080775206286489e+01
9.264488191575804876e+01
1.385999231146154216e+02
1.604186429141307997e+02
1.448045008306449404e+02
8.489831738357278823e+01
1.571638125841798939e+01
-6.239764446423357214e+01
-2.072995563604345364e+02
-3.393494479099178989e+02
-3.075438354579264342e+02
-1.865803941869755533e+02
-1.008875987749378993e+02
4.679753775045359987e+01
2.666986274013804632e+02
3.417541612968113327e+02
2.514469293255497178e+02
1.867798912463484271e+02
1.448434407851414392e+02
2.309442458851310320e+01
-9.974467042972247555e+01
-1.329058156614450183e+02
-1.347549258348270484e+02
-1.584365982110423658e+02
-1.691856390591106276e+02
-1.297321866034554603e+02
-6.003049740540207324e+01
-1.081749741630864214e+01
1.746202282603945832e+01
6.715055811942036712e+01
1.209592616106467347e+02
1.295389056136801287e+02
1.080705753237926956e+02
8.741461696811779802e+01
5.657496409816733518e+01
8.618203488158972192e+00
-4.269702817508004955e+01
-7.712964590860141811e+01
-7.863328226067888238e+01
-6.724034193129207893e+01
-6.164829692476096312e+01
-3.077321729475577072e+01
2.204931033734201407e+01
3.814950911610500128e+01
2.511861088255244923e+01
2.813729258493774310e+01
1.838883839223396421e+01
-2.253937578551105503e+01
-3.872058877163160417e+01
-2.023149000468156800e+01
-1.521398919554133045e+01
-1.581076845573799794e+01
1.152092050085960473e+01
4.203212965820393521e+01
4.578929567480802376e+01
4.302470015528481895e+01
4.763527386623086812e+01
3.455321837296444443e+01
1.825299496557988843e-01
-2.031927937618604929e+01
-2.336045356304928333e+01
-3.950467063653984923e+01
-5.970389562829131336e+01
-5.742209943490931323e+01
-4.953790947004733880e+01
-4.479752011701846470e+01
-1.533871963033696950e+01
2.934278812320516039e+01
5.033326735242528116e+01
5.352065377301281757e+01
5.915347866986382286e+01
5.413177171534322696e+01
3.119300305528978612e+01
9.155751790484364605e+00
-9.653159551184369302e-01
-1.006544941811984373e+01
-2.930176095415301063e+01
-4.170101832654137297e+01
-2.620293356714339339e+01
-1.216665300136779493e+01
-3.251817625688867253e+01
-5.050804872635367815e+01
-3.491519960739484674e+01
-1.872676796153589862e+01
-1.846899925890386651e+00
5.291810128007667657e+01
1.033194918154935493e+02
8.232887290036062211e+01
2.219751554153733863e+01
-1.894248154359292258e+01
-4.523482267491100117e+01
-5.432338292736969976e+01
-1.792710788190709437e+01
3.572191859173527462e+01
4.163840393480095514e+01
-1.279021630719859193e+00
-4.037088972524401953e+01
-5.659845252616754863e+01
-6.054456390970148050e+01
-3.557540298536753909e+01
2.237824146313427320e+01
5.623191653748435215e+01
3.714312199164608330e+01
1.981401413490045371e+01
2.877150746161518668e+01
2.198427468069318635e+01
3.746875999768594312e+00
9.233932295093470799e+00
5.537453946137553373e+00
-3.422481814353040619e+01
-5.313768120577992704e+01
-2.102419019567793868e+01
1.202869359567955243e+01
2.170835387645750458e+01
2.732693574985717078e+01
1.390953630837817734e+01
-3.755113645169522840e+01
-8.286271170359978555e+01
-7.273016830855640080e+01
-2.489319242616056727e+01
2.441616290492114416e+01
7.171858584652925117e+01
1.046731704879954208e+02
9.330587728048887186e+01
4.997620686459060124e+01
1.432053831124660981e+01
-1.211876110189831124e+01
-4.373414179700026239e+01
-7.066886791917363553e+01
-8.548263792229042224e+01
-8.999108849529321219e+01
-7.165724022015432126e+01
-1.974117957821906089e+01
5.018496407572427387e+01
1.003836409501089975e+02
1.000030250814063919e+02
5.885033543041076598e+01
1.404520148898319443e+00
-6.415723890382581374e+01
-9.639770401933687083e+01
-4.929436958069076979e+01
1.940613887595584330e+01
3.965117802724243035e+01
5.342401922691507110e+01
7.474166818801481327e+01
3.871060688247576564e+01
-1.823687552266673961e+01
-1.616365829710553825e+01
-6.465657475563430623e+00
-3.584973681382594179e+01
-4.593255627195964053e+01
-2.851191555397770117e+01
-2.671957292319744681e+01
-2.800317630854173601e+01
-2.663602647242534971e+01
-3.938880702676948431e+01
-3.976977136497470866e+01
-1.533168717764278632e+01
1.276363602173460166e+01
5.387284600754845343e+01
1.055493942341488065e+02
1.308232396052335673e+02
1.241454891194078698e+02
9.889840049840792346e+01
6.547369460336295788e+01
3.167274741147161521e+01
-4.830740994854538428e+01
-1.933520827212691131e+02
-2.928383761353287582e+02
-2.854771294032095739e+02
-2.344488793778292290e+02
-1.093534359135778686e+02
1.352182941501634730e+02
3.309129108266825483e+02
3.355265408006894177e+02
2.465715001079685180e+02
1.463897437000310617e+02
9.830104276542696695e+00
-1.093037072851778220e+02
-1.367833273188109615e+02
-1.101265968866570120e+02
-9.134968824190501380e+01
-9.400029691833151446e+01
-9.565838473966461208e+01
-5.976557952702983556e+01
-2.325231948124763193e+00
2.909835477383731828e+01
5.006400869711788459e+01
7.878235657082613841e+01
7.494584212352651775e+01
3.989634197783522040e+01
1.951265169453903070e+01
9.163042849750670626e+00
-5.524959001277700565e+00
-1.016179283755558416e+01
-1.493643045575808515e+01
-2.715382327871524382e+01
-2.351029611232198846e+01
-1.709966961316174405e+01
-3.393578019130528389e+01
-3.679588694322355735e+01
3.929256739306801194e+00
4.233734189845212370e+01
4.782392789761969709e+01
5.120533626130917781e+01
5.259091191689810074e+01
1.128664072195557821e+01
-4.937269280979172237e+01
-6.385671804009079011e+01
-4.641851706763370089e+01
-4.820330370492013117e+01
-4.696129475036065770e+01
-1.694556070180781404e+01
4.146242127648192444e+00
1.232482987952140796e+01
4.671757791252220926e+01
8.496754681888029381e+01
8.164653842703837938e+01
5.282999539767055808e+01
2.385135934653854051e+01
-1.058631386074200975e+01
-4.502042732772152789e+01
-6.086866675999162624e+01
-5.422614905336785540e+01
-4.126831128197630960e+01
-3.937964937765623574e+01
-3.245745407856707487e+01
1.028194301924481024e-01
2.558588846205227796e+01
1.978524149172693569e+01
2.059469810313050075e+01
3.357335144428358831e+01
1.947301029835776376e+01
1.515913896154717611e+00
1.811282486788476476e+01
2.818915836563754240e+01
1.364530204135218749e+00
-2.169031750133768455e+01
-2.450872327419450158e+01
-2.812040519717535503e+01
-1.795764988121585404e+01
2.112678280027087041e+01
4.770291601204541365e+01
2.726606780273349528e+01
-1.066975847140212430e+01
-3.609005791293419918e+01
-6.038999912378313439e+01
-6.905620772764424942e+01
-2.311810716785471698e+01
4.059852409691041686e+01
5.329810846749028741e+01
3.785877100926674643e+01
3.532061221557601982e+01
1.343849553734879798e+01
-2.615504497713846987e+01
-2.450249922917013379e+01
4.162884036308419411e+00
6.134192414833918860e+00
-2.827510505566217525e+00
3.344787563561739674e-01
-2.735366433711423184e+00
-1.129768962036165014e+01
-1.346762796630721581e+01
-1.601083839199920078e+01
-1.326107236440565096e+01
6.694233594167879886e-01
1.279655045270935432e+01
2.556426502633473774e+01
3.996655034568532727e+01
2.947619925137927055e+01
-5.982301307235362131e+00
-3.475593092168739418e+01
-5.104130544042691753e+01
-5.413987869154441057e+01
-2.498687030631796091e+01
1.870216886055883521e+01
3.198380719310519638e+01
1.972553368916935312e+01
1.434372634503148092e+01
8.499021902710524046e+00
-7.280115410532888021e+00
-1.758342076429177947e-01
3.505019499362636992e+01
4.400671525111053484e+01
1.388600767272382441e+01
-5.351566775679560628e+00
-1.012823074196617590e+01
-3.166193249593801795e+01
-4.466076128315280158e+01
-2.648205645638103078e+01
-1.208957678310551564e+01
-1.253264199802216794e+01
-1.267480815511193626e+01
-2.335789056596192736e+01
-2.864070518076644944e+01
-2.429246165179977268e+00
1.695116102395218505e+01
1.716070926616454884e+01
4.572278893707173353e+01
7.110668615740327425e+01
3.736804180603558478e+01
7.387360882081972946e+00
2.662202572209757179e+01
2.882871969876869045e+01
2.574464892504299662e+00
-1.012512749326508477e-01
-5.439645755878659728e+00
-4.827661439592606740e+01
-8.376495643712711114e+01
-8.520601078764516956e+01
-7.716791380733475592e+01
-6.412884490098068113e+01
-4.045402817331153500e+01
-1.947466867573206883e+01
-1.037856364812428378e+00
3.460434878377263601e+01
8.694103818899201030e+01
1.277541754551673421e+02
1.464002974892590601e+02
1.586778354298947704e+02
1.488559029806689011e+02
8.581258868436202647e+01
-1.132434433212843317e+00
-8.242614313274080473e+01
-1.920673041503262652e+02
-3.088912198104800382e+02
-3.347374395561231495e+02
-2.553168260833491274e+02
-1.236892997132210184e+02
5.782559604152640276e+01
2.522435221584025840e+02
3.464332180255552203e+02
3.112379973162239253e+02
2.182529838723529565e+02
1.020085075668231411e+02
-2.716418952729283731e+01
-1.170990157733996568e+02
-1.403784086548994594e+02
-1.360153105136946010e+02
-1.309784512037207378e+02
-1.028773428671602517e+02
-4.732549206608879899e+01
-4.957079161782377064e+00
7.827417584300265574e+00
1.687964742757149139e+01
2.408882311142779642e+01
1.372482719460955103e+01
6.883395422241141759e+00
2.465259681366042344e+01
4.925486571704211514e+01
6.287822612029670211e+01
6.060490875126594545e+01
4.153504152285033513e+01
2.031739181759781232e+01
7.763182131687309528e-01
-3.005296597084819155e+01
-5.386815546165735924e+01
-5.079324313352935150e+01
-4.721296840655983118e+01
-5.353785312894140702e+01
-4.321841320764198713e+01
-1.977389267176613430e+01
-8.476038213167862434e-01
2.385033656320703344e+01
5.599015689319151079e+01
7.871057837683233060e+01
7.885825900975645197e+01
4.248657705392696471e+01
-2.155098304347212235e+01
-7.362973872433926203e+01
-9.370287007208121111e+01
-8.202981432721296073e+01
-3.547078648539640255e+01
2.520197898556821414e+01
6.760178018572894132e+01
8.251078354319807318e+01
6.374543557609266742e+01
2.082957905858511793e+01
-8.777240421667174886e+00
-2.582417691815595262e+01
-5.240033990928593255e+01
-5.608560021973885057e+01
-2.087117743623769073e+01
2.724140956665208613e+00
3.570183003165426250e+00
1.479759398276437743e+01
2.121294317696129639e+01
1.552462358072971060e+00
-1.691380634223827784e+01
-1.402728724058089504e+01
-2.155442933404891903e-01
7.206861800578721500e+00
-1.239872415516674709e+00
-6.727462716695233880e+00
5.979949588667659910e+00
1.249785126055550499e+01
9.801538470424254967e+00
2.293700560214557527e+01
2.674858563502011677e+01
-3.967745340981498892e+00
-2.486507073463922168e+01
-1.488097830018213941e+01
-8.793963049407071964e+00
-5.508831293021630771e+00
1.004135847373105861e+01
9.390230445296294803e+00
-1.460579163893365617e+01
-2.761598141487352009e+01
-2.372793455187375145e+01
-2.049808552442703657e+01
-1.608539378059816727e+01
-6.783323424954404324e+00
-1.128675050327873297e+00
6.583669560025455780e-01
1.113457380005457686e+01
3.503216958717334961e+01
5.659547526663484973e+01
6.059973570718366176e+01
5.007814643888644923e+01
2.389593921889157713e+01
-2.149279047762583161e+01
-6.010619847719854647e+01
-6.850930448877493006e+01
-6.302600346682648080e+01
-4.969186291954215307e+01
-1.271053846651842534e+01
2.072697264483817747e+01
1.257423601517125711e+01
-6.705031133697039181e+00
5.940567652726995718e-01
8.645169753726413830e+00
4.363600428015669053e+00
2.113369174984465459e+01
4.716834790174010550e+01
3.623505047320449535e+01
8.364641474351447670e+00
4.719278499935899873e+00
4.704493720841589344e+00
-6.567311287290228172e+00
-5.200780822183705965e+00
-3.560528759028404266e+00
-1.991902557427657072e+01
-2.305529209499780663e+01
-1.371838308765529035e+01
-2.832112548948471797e+01
-4.100859418996525108e+01
-2.637831156930308296e+01
-2.586763635131475780e+01
-3.262487775511306864e+01
5.782926859539447406e+00
5.544143240473502487e+01
6.307589134731902902e+01
5.454871992913417955e+01
4.557633747659579626e+01
1.890304732193553860e+01
-6.338362987551135141e+00
-2.033285943903268844e+01
-4.171750563258699174e+01
-5.296310663781721217e+01
-3.986824278196602478e+01
-2.550695918518986716e+01
6.725379687012433827e-02
5.303944803395143026e+01
8.621549009128645480e+01
6.206997510875820723e+01
9.527922101636631780e+00
-3.641673887393546494e+01
-6.908465441233840920e+01
-9.618945684314202538e+01
-1.137298093547286584e+02
-9.235783129953232162e+01
-3.981913202494040149e+01
-8.409326253140470442e+00
2.129854826227433762e+01
1.027184285213503045e+02
1.781431377584731308e+02
1.845141278532583158e+02
1.784512533648615999e+02
1.780096868040562299e+02
1.060338880258976246e+02
-3.956800916372767318e+01
-1.980999185885989675e+02
-3.507765313785076842e+02
-4.453121772680499930e+02
-3.941063413791985681e+02
-2.015322945392966290e+02
6.073407700295571487e+01
3.145530735702629954e+02
4.472215745635341477e+02
3.992493611916334544e+02
2.518527753939213767e+02
9.904271171130332618e+01
-3.502914699247278918e+01
-1.219300336845115424e+02
-1.485450756602342324e+02
-1.596451878842406416e+02
-1.715992885518011803e+02
-1.536610966457948848e+02
-1.022247193529457547e+02
-3.067322077374820211e+01
4.164448832687642010e+01
6.510292609940299258e+01
3.214345537723818325e+01
9.081277600008840878e+00
2.434658946441606275e+01
4.961995192090335394e+01
8.040703236126940112e+01
1.055649915286756908e+02
8.243026173584343042e+01
1.731458179366944350e+01
-3.802173128491234877e+01
-6.084895096015503668e+01
-5.414445143542965155e+01
-3.708419153328155460e+01
-4.114501611077180598e+01
-5.456098234025071037e+01
-4.243664920230681048e+01
-1.874980106718539474e+01
1.786497321515705394e+00
3.558492422257616994e+01
5.474243088835640236e+01
2.442142098323503419e+01
-1.168188069677684737e+01
-1.593260343715713567e+01
-1.160237502615561311e+01
1.635059735478743947e+00
2.891115017807796050e+01
2.499485132663446052e+01
-1.325894918403404787e+01
-2.674972302609673136e+01
-8.857977268647346136e+00
9.127585839543989721e+00
3.358568903611526224e+01
5.680614560118961975e+01
4.035616888065833052e+01
-9.638624346653273278e+00
-5.447410577514383334e+01
-7.687134727013646796e+01
-6.881961247074630705e+01
-3.615338844748993807e+01
-1.031200205046125973e+01
1.187334723077166476e+00
1.802135232282848065e+01
2.686484430909512966e+01
1.016255611728694674e+01
4.271972808793201182e+00
3.221033438434768215e+01
5.031637289093735887e+01
3.974592715161153222e+01
4.229731669855895149e+01
5.707403854916446306e+01
3.029982334529001520e+01
-3.779731396752593042e+01
-9.471601380936722592e+01
-1.191504914648837712e+02
-1.136674233643937555e+02
-7.068479394267518501e+01
2.236009379877675673e+00
7.145471662773839228e+01
9.633844895109126583e+01
5.998263002223882978e+01
4.489851694663316906e+00
-1.390922379872754711e+01
-2.220081178502948838e+00
1.228785516547732648e+01
3.576911672183570801e+01
5.149962052213247432e+01
2.585250788678820300e+01
-1.597037625804260941e+01
-3.603325686986860887e+01
-4.078156946579002096e+01
-3.306348498076059883e+01
-2.190124262682580536e+01
-4.323533429236786674e+01
-7.335636229696488897e+01
-5.030612923652694946e+01
-8.351683121640798291e-01
2.543054357626958861e+01
6.109774095284520712e+01
1.055365902301282546e+02
8.315932664837028199e+01
1.252474093193222693e+01
-6.400431499446532335e+00
1.557813844058615516e+01
3.961283603873595460e+00
-2.025570677844297762e+01
-2.268517171782333719e+01
-4.165552256744187076e+01
-6.963851568265567948e+01
-5.069114716117864106e+01
-8.810323711750571718e+00
1.089727146080409348e+01
1.908043772899527113e+01
5.597174012349364070e+00
-2.982814413247428575e+01
-2.458420735486279085e+01
2.020631018729260120e+01
3.891562725335940343e+01
3.638719679136097795e+01
3.182094927173945820e+01
1.557317692991023605e+01
2.771060436319105946e+01
6.869659413183781282e+01
6.289511431842235822e+01
2.203213220905616510e+01
-1.147396611044815806e+01
-7.845232938076513562e+01
-1.385095403631783313e+02
-9.163538193947178456e+01
-5.987525387837903779e+00
1.713229571368435122e+00
-4.139182361059767601e+01
-6.667353641018546284e+01
-4.341884147461034615e+01
2.152820628123765090e+01
7.546670179157001712e+01
1.091813670628184809e+02
1.352966517104182458e+02
9.576119258266449208e+01
1.335248853765720511e+01
1.281701538296098342e+01
7.010832590400555375e+01
6.307200132380417301e+01
-1.970505150425078966e+01
-1.202777285255718311e+02
-1.538188193859689932e+02
-8.457597929934360081e+01
-3.863732164746833320e+01
-7.965561943623340824e+01
-1.012820327065793151e+02
-1.150848146530810112e+02
-1.552901366676317139e+02
-6.340412693950747780e+01
1.654557313457516727e+02
3.116085246407606064e+02
3.222245976541889831e+02
2.487734800325168862e+02
1.150866783924540471e+02
5.058558049853012761e+01
5.607732349646335734e+01
-7.630941304112808155e+01
-3.182579137912674696e+02
-4.516400521167394118e+02
-4.188207856608960924e+02
-2.057286886395831971e+02
1.546919976884994412e+02
4.432950634464550035e+02
4.966794032335549218e+02
2.997336763887802249e+02
-7.012756029304232186e+01
-3.227155334419891801e+02
-2.676226211758366276e+02
-1.483235786721567990e+02
-2.096291646667654049e+02
-3.832421307983730685e+02
-4.180806019096785349e+02
-3.067018580775453529e+01
5.981625466843731829e+02
9.290540318139441069e+02
1.058668316491110318e+03
1.156970586097634168e+03
4.883975819575099990e+02
-8.690321906302600610e+02
-1.372723528610756148e+03
-9.239303186330964763e+02
-9.903937866171989981e+02
-1.283875352629437430e+03
-5.308698282687066694e+02
4.873916718977108076e+02
5.971923252834120603e+02
6.103797816826701137e+02
1.226990760176016693e+03
1.493791957283488500e+03
9.001464102516097228e+02
2.588842712617727102e+02
-2.291065699236041642e+00
-3.190220530654680715e+02
-9.225951934827776313e+02
-1.541944205329159331e+03
-1.627857109172267428e+03
-7.099207035654743549e+02
6.088665455580830894e+02
1.039505766030413952e+03
7.413042168550019824e+02
7.070547657628627576e+02
2.458955027468162200e+02
-1.132809529875190947e+03
-1.266454520616922309e+03
6.622720182569529470e+02
1.679818839656442378e+03
5.279304230058382927e+02
-3.138402705295604278e+02
-1.486252999200628437e+02
-6.199463064456721213e+02
-1.107487205059622738e+03
-8.548779197853467338e+01
1.184192122913075764e+03
9.248019073638760119e+02
-2.014483718953908067e+02
-6.305734144324047747e+02
-9.226704498908681273e+01
3.147331697599060476e+02
-1.913783467005775094e+02
-7.395518697247791806e+02
-6.540013013864476079e+02
-8.263646396466281203e+02
-9.779680306698213599e+02
3.868298084671400829e+02
2.054528015990478252e+03
1.851477732577589677e+03
8.370093778445400403e+02
2.960604725652580100e+02
-5.854075481589693482e+02
-1.125363088826601143e+03
-2.513970768738840036e+02
1.194575205826919699e+02
-8.003990384884389186e+02
-8.779836294527203790e+02
-3.051297567049296049e+02
-5.752750591734370573e+02
-2.840292961682314967e+02
1.045201590814234123e+03
1.190457489667940990e+03
2.478972296176101224e+02
-1.883646890001194762e+01
1.160276524242295011e+02
2.529843859803709449e+02
5.050239561875046093e+02
3.008300752186472238e+01
-7.495323328709404223e+02
-5.871276516024252032e+02
-4.646210637068593314e+02
-7.644044917779765456e+02
1.434926436780933159e+02
1.359464284672996882e+03
7.626378279157993347e+02
-3.624430543674362184e+02
-3.764833339441873932e+02
-1.564138817155392758e+02
-2.141466726479933129e+02
-2.032809029266675793e+02
-1.691414964457123347e+02
8.373999125527706155e+01
2.408494552475004298e+02
-2.327171803535415506e+02
-1.786398539972149990e+02
8.039977256014741442e+02
7.827317431659064368e+02
-2.783011339042421355e+02
-4.007539029490755524e+02
5.427584622201499798e+01
-1.972115270019327227e+02
-4.855955585971415189e+02
-2.001444407834441108e+02
1.491877078407452188e+02
2.281287148989472371e+02
5.954407837694083838e+01
7.112432802990265657e+01
4.361239324201088721e+02
2.523926873645582987e+02
-5.123278639181995686e+02
-5.661450078070956806e+02
-9.168698385936734496e+01
-5.551649007170729533e+01
5.006928898590621912e+01
4.097732980168476047e+02
2.576405743785516620e+02
-8.237338263115192660e+01
-5.752928433501573124e+01
-1.617570254761137249e+01
4.438320241047144776e+01
2.009218368437939830e+02
7.183741169153474004e+01
-1.247166149391809142e+02
-8.650867347506037675e+01
-7.481677898986136199e+01
8.545763489137105040e+00
1.342146248684558998e+02
-1.356226812873902361e+02
-3.791455996157012578e+02
-2.002521307892317850e+02
-1.159373724879809515e+02
-2.224569915152619970e+01
3.111739938752460830e+02
2.329342746450363961e+02
-5.914556825625199821e+01
6.496801316167938012e+01
1.173157166724596152e+02
1.920015835540501712e+02
6.484874701320834447e+02
3.875935196433282499e+02
-4.380639494569210797e+02
-3.620754239343802965e+02
-3.290508756046417602e+02
