-3.359492389455162629e+04
-5.779114608478388254e+04
-4.003677996860518761e+04
-3.952199657230587763e+04
-3.077121392438052135e+04
6.536403528553044453e+03
2.158354586994106285e+04
7.623628853655919556e+03
4.645109444502437327e+03
1.147082289254163879e+04
1.442440132130924576e+04
1.706971209016251669e+04
1.284850964114091948e+04
3.010655059962908581e+03
4.626588666353016492e+02
-1.510228373577399907e+03
-7.483067796463144077e+03
-6.014112066047144253e+03
-2.251041896988310327e+03
-6.547086003805502514e+03
-1.027083391985911840e+04
-8.321167735348419228e+03
-4.747609537260446814e+03
5.437257474540915609e+02
3.208212445790601578e+03
4.582966883597969172e+02
7.514845235827979195e+02
4.577341509468030381e+03
4.754014147840360238e+03
4.424425944225989042e+03
5.850446059733063521e+03
4.144214005420413741e+03
9.282577158486934650e+02
-5.553271789798926648e+02
-1.548144178728749466e+03
-8.579928866694531280e+02
7.664407724958168444e+01
-2.893469407125811813e+03
-5.526301710789542085e+03
-3.744732653857632158e+03
-1.957175734949394609e+03
-1.489290136548739383e+03
-2.577678828552327559e+02
1.395366744416878646e+02
1.483874514253634302e+01
9.922941377363889615e+02
1.420131662539566378e+03
1.906818767153983572e+03
3.470668465866687711e+03
2.828878514664426348e+03
3.393945882386209405e+02
-6.044367909999522226e+00
7.192175098450695714e+02
4.584486364346474261e+02
7.406065412283673766e+01
-8.952824004570950365e+02
-2.113500469879639695e+03
-1.770378880378499389e+03
-1.210964326227880065e+03
-1.408467207338419939e+03
-6.891102591479112789e+02
4.637685868185660354e+01
-5.261345448030577927e+02
-5.851216718221057818e+02
3.369134736159488739e+02
1.043637998374408426e+03
1.567397432838119130e+03
1.341859797997380383e+03
2.956260346774384402e+02
2.545386043658084816e+02
8.624794327514780434e+02
4.501549380178039428e+02
-4.512415594522227025e+01
2.769233096272269989e-01
-4.072425285435232922e+02
-8.336126655439113620e+02
-6.936700389061957139e+02
-5.121521859997967567e+02
-1.995140683550706910e+02
8.092773571788711706e-01
-4.869139372811650333e+02
-6.301648093266398973e+02
6.803138734624214123e+01
3.647037896961638808e+02
1.467924894629166204e+02
9.689721360389783911e+01
-1.780358581191238443e+01
-8.396586274502926983e+01
1.483700377830228376e+02
2.479898977825535837e+02
4.138254165588157889e+02
8.445858064564393999e+02
7.608837872840714454e+02
2.718861742721938981e+02
1.513718606060103014e+02
-4.803823859057229129e+01
-6.738922469880760673e+02
-1.065854186053109970e+03
-1.043043546100398089e+03
-7.847263331857707271e+02
-2.428845424960471462e+02
2.249682521538273932e+02
3.376442695489375865e+02
3.780613945282016175e+02
3.857906545841594834e+02
2.762750904045038851e+02
2.704470110170004773e+02
3.294954086719964721e+02
2.533891066194323116e+02
1.108772422765708967e+02
-7.827087863341807861e+01
-2.469447311866952077e+02
-1.738656734253714831e+02
-3.034523605583247985e+01
-1.105675498645335750e+02
-2.347970310766918658e+02
-2.183560062903019627e+02
-1.656588331863625001e+02
-9.919133487809394012e+01
-1.036830030987818674e+00
7.571013307997530717e+01
1.322389101167227636e+02
1.301777936061218099e+02
5.534505106485917025e+01
5.506058724126074821e+01
1.344478497529394190e+02
1.086351835579714447e+02
-8.005396961272708722e+00
-5.360726116487732895e+01
-1.549946076682159735e+01
-8.874952989222567368e+00
-5.531570419290341789e+01
-5.269601806923817833e+01
-2.006174519274296841e+01
-2.876568734317106646e+01
-3.761487834897749138e+01
-4.163956575815007710e+01
-5.605948119881782787e+01
-2.032157247390651378e+01
1.471290584146843372e+01
-1.769297724919244175e+01
-1.370200562235720732e+00
4.946942513128479391e+01
-2.107699472808716479e+01
-1.020300444994374232e+02
-3.014972816769433095e+01
9.838085715415654420e+01
1.549300972025859267e+02
7.453660539232323856e+01
-7.767547450786408092e+01
-6.715157643491784256e+01
5.326020774934250568e+01
4.135042634210802248e+01
6.172382791825206283e+01
1.904587527443201509e+02
7.673883884581945836e+01
-2.072970195106741471e+02
-2.657729203079697982e+02
-1.576576721214332224e+02
-6.289527151800155025e+01
-5.019548694725105520e+01
-2.058600185951522121e+02
-2.719407424547832761e+02
-6.100037765672524870e+01
7.108709687149537615e+01
8.680437550884812481e+01
2.332321364789247866e+02
2.662757139566083424e+02
1.462489099859317321e+02
1.798211606746492066e+02
2.332070022151723947e+02
2.784203839669407898e+02
3.858809962866164938e+02
8.073652017286838145e+01
-4.381680509456825234e+02
-3.433918204140786656e+02
-4.787050578591927774e+01
-2.010727551344467088e+02
-3.979784264306925934e+02
-5.453711157847392315e+02
-7.080563047205531575e+02
-4.621318489100253828e+02
-1.117673631292170882e+02
5.165600040949705374e+01
4.953492069203308574e+02
6.666063962485712864e+02
1.176013843564771975e+02
1.240116961872379733e+02
8.410585806068918373e+02
1.029385544674684752e+03
8.006606838390468965e+02
4.180310711289578194e+02
-2.708143629648346291e+02
-3.765110240054734732e+02
-5.544936113956769930e+01
-4.882716562503749742e+02
-8.762716795058149728e+02
-7.366345751541704203e+02
-1.223161909958454544e+03
-1.606456146094435553e+03
-8.339244724044485793e+02
-4.394912844540619545e+01
3.426965396564782509e+02
4.675409034705834301e+02
-4.282954513416530062e+01
2.821177027888600151e+02
1.914726643323387862e+03
2.276438476239701686e+03
1.429739903182177841e+03
1.291339414178567495e+03
8.218088678963422353e+02
-1.059985304239696688e+02
-5.842900266798106657e+01
-1.837587878704455022e+02
-8.736742355766057244e+02
-1.254307558059764915e+03
-2.655766852103165093e+03
-3.860182656759090150e+03
-2.016481163161943414e+03
-1.400433761474640164e+02
-7.730823497229415580e+02
-9.748568512542021836e+02
-2.628941919611027060e+02
4.919728296557988756e+02
2.608825612096149598e+03
4.021690579647598952e+03
3.360724820509034089e+03
3.611273135766080031e+03
3.157447615258697624e+03
2.982361177475000886e+02
2.336890680487520058e+02
2.302149830976189151e+03
4.753954968015319196e+02
-3.195476901739950790e+03
-5.667793816169977617e+03
-7.117173965361648698e+03
-4.820871516982444518e+03
-1.928636681593726280e+03
-3.946295244910579640e+03
-4.427535419795635789e+03
-8.479854173946710034e+02
-3.999621071679368356e+02
1.380242629230220928e+03
8.850722584781155092e+03
1.215272833527052717e+04
1.019656528444401374e+04
7.854789789556824871e+03
3.083289967681406324e+03
4.975654822665946085e+03
1.411196728097969753e+04
4.529145832309771322e+03
-1.886839810106145887e+04
-2.469327101822159966e+04
-2.798890652714408861e+04
-4.195255127120375255e+04
-2.461058895241240316e+04
2.232368668400704337e+04
3.900922636154996871e+04
2.831037079217236897e+04
2.885083076054815319e+04
2.169073347653933160e+04
-5.046370795641616496e+03
-1.518346971240312087e+04
-5.241307587301687818e+03
-3.204371467998860226e+03
-7.857658570415876056e+03
-9.861824890615143886e+03
-1.180505197284733003e+04
-9.128641787285188911e+03
-2.497822062949217070e+03
-4.177829098105271441e+02
1.444271581172399465e+03
5.467848307420251331e+03
3.980925370651637877e+03
1.275259685528400496e+03
4.454613776816191603e+03
7.210862585422419215e+03
5.929093871975241200e+03
3.365708091535650055e+03
-4.205926916871240451e+02
-2.299860859675216034e+03
-4.615687535157125012e+02
-6.536869013520455383e+02
-3.039342222564977419e+03
-3.017579149703846724e+03
-3.053590873169426231e+03
-4.311096047057454598e+03
-3.074542036309710966e+03
-6.600744730470944432e+02
4.786324112434080007e+02
1.179607459253993738e+03
6.397662663259236524e+02
-7.530406192841878976e+01
1.956268434967785652e+03
3.773404081750947171e+03
2.564961520228221616e+03
1.397487965689854263e+03
1.092110404695538136e+03
1.416254019061336180e+02
-2.135997723810135085e+02
-5.863353767061210675e+01
-6.295297264795242427e+02
-9.350439775680753201e+02
-1.348375725907432525e+03
-2.480679684353913217e+03
-2.034424181408904815e+03
-2.386512700289287068e+02
6.792933458792734314e+01
-4.739126929960194161e+02
-3.455249008075492156e+02
-6.444564354463929590e+01
5.719316538201164803e+02
1.357900218447263569e+03
1.208333113218058315e+03
9.626575622825880600e+02
1.101771898922105265e+03
5.176548174594267948e+02
-3.378424574878449249e+01
3.715969447559426726e+02
3.821460440440798152e+02
-3.828362012014130755e+02
-9.502926867638068416e+02
-1.199502028476588293e+03
-9.157323360416132800e+02
-2.024167581730232541e+02
-1.523433479727624444e+02
-4.817343706485704615e+02
-2.401841802157873929e+02
-2.720783537281584330e+01
-6.047365742647636466e+01
3.089922403324734432e+02
6.488419988470436692e+02
5.580001666536468292e+02
4.182687506394422599e+02
1.611180973670733749e+02
-1.525678104629901810e+01
3.025211359155041464e+02
3.732524769935038194e+02
-1.447558888504734682e+02
-3.424922209572843030e+02
-1.629538126242941587e+02
-1.798799304815068467e+02
-1.887398906920832644e+02
-1.226916628662594064e+02
-2.234758134267870275e+02
-2.730848020933325415e+02
-2.060916118540631032e+02
-1.449682413493819411e+02
8.396184128350019193e+01
3.084258801568677768e+02
1.881201130442354383e+02
-6.366521725447192637e+00
-9.149130916545074044e+00
7.010893178689292426e+01
1.789498014297076054e+02
1.844839205866462919e+02
1.936720238184926757e+01
-4.945151875110881434e+01
-1.955876047284689179e+01
-9.232194250572555916e+01
-9.059597777384581718e+01
2.641554810717925506e+01
-1.134673999540988376e+01
-1.182519997633793736e+02
-1.140059323184777469e+02
-9.451870821768989117e+01
-3.376714803437397450e+01
7.559842042986478816e+01
4.057016252991402894e+01
-4.263132917279891387e+01
2.324147344362578949e+01
6.483485261789358844e+01
-8.466881672085721178e+00
-1.766457259951604897e+01
1.576104554768893884e+01
-1.211424172915513608e+01
-7.616752882595940299e+00
4.922812008049856303e+01
4.562249853467302074e+01
-2.133652663388746262e+01
-9.237495191891861168e+01
-1.407398466004783586e+02
-1.196959272772333662e+02
-2.276035776059258708e+01
7.257844882238977391e+01
1.233521518114680191e+02
1.437118838431844949e+02
1.301457900552536557e+02
8.021799707604287732e+01
5.029688468016795611e+01
1.309656985189898393e+01
-9.633743372101592684e+01
-1.755480033726505553e+02
-1.650368044620326771e+02
-1.990801182598076480e+02
-2.623791199838307193e+02
-2.123591160761392018e+02
-1.317834173585550275e+02
-7.591006844962507216e+01
1.352826830889377447e+02
4.584567312574019979e+02
6.164233051568992323e+02
5.856068677463243830e+02
4.291143503369103200e+02
5.195677767063072849e+01
-4.111338202961450179e+02
-6.297876584692174902e+02
-5.941626695406347380e+02
-4.693928734075394118e+02
-2.523427864226317467e+02
5.623331233271309237e+00
1.417705796504428122e+02
1.753060009041678597e+02
2.215077784962099372e+02
2.624682358932290640e+02
2.529184403431857788e+02
2.029525970108360013e+02
1.127963215414137039e+02
5.502235644458300712e+00
-6.699770974598642681e+01
-9.893050713626432469e+01
-1.096152121002137676e+02
-1.019163855794551523e+02
-9.362462367535600549e+01
-1.035417896147339718e+02
-1.034620738868714369e+02
-6.199031965158156510e+01
-9.929212606409164366e+00
9.942560077115871309e+00
1.501914076723475944e+01
2.531602966663403365e+01
1.653054688614425061e+01
9.157886869424359588e+00
4.852260579852656264e+01
7.790937369757070030e+01
5.122916568759244882e+01
5.153529718558260697e+01
8.925673977979194262e+01
5.794473946579432777e+01
-1.257525275592117353e+01
-2.059051509476741160e+01
-2.824574363128580501e+01
-9.543804444854069402e+01
-1.234766409031195593e+02
-7.903994586559737456e+01
-5.841754551415198193e+01
-7.562423719533340716e+01
-6.200644585785242668e+01
-1.613157212907048432e+01
2.501789098047821369e+01
6.827693391276605439e+01
1.146067010908426909e+02
1.191641096506930779e+02
7.326141599111345215e+01
3.090327739013996933e+01
7.848798439105316938e+00
-1.283390152458380307e+01
1.232654569490712060e+00
2.831116446334197079e+01
-3.499081994465360168e+01
-1.381209791974904419e+02
-1.321142127311415493e+02
-7.559765399529838703e+01
-7.116468298032796724e+01
-1.895638183593605319e+01
9.278779625194154335e+01
9.152716795463442168e+01
6.035051718126574372e+00
1.053945223736103110e+01
5.350500300268414833e+01
2.625789703152357646e+01
7.985355017746342376e+00
3.569939677573278658e+01
1.670518053361506361e+01
-4.061472275748721472e+01
-5.135482370232412563e+01
-3.461492205577816605e+01
-4.180852718416274172e+01
-4.908195215312532156e+01
-3.109208451921243466e+01
-3.124447990366052252e+00
2.994565455750466754e+01
6.514037261100527587e+01
6.984488644585438522e+01
2.718785481250572644e+01
-2.683044469827301626e+01
-5.519118696262135870e+01
-5.944703359514658558e+01
-4.675386720991677691e+01
-1.696162167569343993e+01
1.264368967635324736e+01
1.720841026382257155e+01
2.093135908833488656e+00
2.774085348371372106e+00
2.751568437018852009e+01
3.253232011652515610e+01
4.377303088047169943e+00
8.213447442780932306e-01
3.050521620861067973e+01
2.014618976178887166e+01
-1.990597948616316870e+01
-7.943804419096186287e+00
6.154843452067179754e+00
-6.659174924161027320e+01
-1.278654839967242225e+02
-6.963283000659865252e+01
1.405653909640856458e+00
-1.512235699657098476e+00
1.796053374061877150e+01
7.290265977820152443e+01
5.379088401125298446e+01
6.516608889957101525e+00
3.682217829105294982e+01
6.643330207545203336e+01
2.496801486763513722e+01
-5.013250814550826107e+00
-1.092217124093855674e+01
-4.655938695829642171e+01
-5.119954441078102292e+01
-2.178272571454956896e+00
-5.063018839809530824e+00
-6.351297580173677915e+01
-8.355465464254649532e+01
-7.184295957007945788e+01
-6.451771052479256241e+01
-2.393963025020018875e+01
6.131698058753214298e+01
1.260682508833078543e+02
1.018750316648653467e+02
1.252736352974675782e+01
-2.450443166677540319e+01
1.705816956791251116e+01
3.139398046969450107e+01
1.639797354056963741e+01
4.596354775888583788e+01
5.041960587548616246e+01
-3.019535632503764333e+01
-9.374018878820743339e+01
-8.391961922056360379e+01
-5.327481028741041058e+01
-3.965059939956500301e+01
-6.952191547195764088e+01
-1.083233460230603953e+02
-7.205328438556526294e+01
-1.530942806533465372e+01
-4.991373684150556933e+00
6.323916740202933084e+01
1.731424005344138664e+02
1.441732986015791198e+02
3.606054077204931474e+01
3.482568159905590477e+01
8.959698539664749717e+01
1.046968702031260108e+02
1.109191549439479871e+02
8.204736873417347454e+01
-3.331109697308601625e+01
-1.820584866244606417e+02
-2.919067769846058127e+02
-3.281995854435871820e+02
-2.977429366796956742e+02
-2.424854137746598894e+02
-1.629524620631852372e+02
-4.463888491201704056e+01
1.162222238901160267e+02
3.706577486827707730e+02
6.480506592293751282e+02
7.127279036324567869e+02
5.301219431377548972e+02
2.248702514245529755e+02
-2.268254649728901029e+02
-6.852378109267216360e+02
-7.892438597430556229e+02
-5.751356542896463679e+02
-3.378972599302506978e+02
-7.363623186873729765e+01
1.977528711575681939e+02
2.669005108376579187e+02
2.147155900641413098e+02
2.333838003321026235e+02
2.342309084538273112e+02
1.688168867184410260e+02
1.179974941927935106e+02
3.565188480349490874e+01
-7.219674190221202537e+01
-1.059257380819155117e+02
-1.039098553546281352e+02
-8.829145385570123494e+01
-2.386516832376861075e+01
-1.784252402216417011e+01
-8.809971569551746029e+01
-8.256352174872796468e+01
-4.057444387433083932e+01
-5.963104922629643312e+01
-3.257754714049120537e+01
4.592926138427118588e+01
4.496356383644909016e+01
1.415948342126941384e+01
3.273844459432465470e+01
4.199956479698989398e+01
2.847198435580056852e+01
2.396159307101554248e+01
3.099703759762920896e+01
6.260554145498678480e+01
7.622964477263585081e+01
3.519643437758355731e+01
1.179005755021651680e+01
-9.716064003131780424e+00
-1.050997521931255392e+02
-1.619963061233860628e+02
-1.150210502927315162e+02
-9.581503664795116038e+01
-8.717375249030247630e+01
7.033734911847362881e+00
7.327805204635605207e+01
5.153687720894490099e+01
5.404448260331764686e+01
8.127914517385981696e+01
7.690001780450702995e+01
6.891351704070126516e+01
5.367536944436567836e+01
2.836930878148746160e+01
1.292152657576793651e+01
-4.247542480082805838e+01
-1.099793679869325018e+02
-9.329147350052608090e+01
-6.777574143276277141e+01
-9.007480873808206923e+01
-4.660912230876424189e+01
2.444022959485169366e+01
4.777270383852325608e+00
3.663940239127184917e+00
7.603731604128464028e+01
7.934221916656495921e+01
2.882799671825627996e+01
3.041848933408681432e+01
1.953385956473131202e+01
-3.958505110952528838e+01
-5.518902736163227019e+01
-2.393608878399584139e+00
5.466770765331991555e+01
4.351803815506355733e+01
-2.919791305885259547e+01
-4.954853114616782506e+01
-2.599564921119358374e+01
-9.176918137856705471e+01
-1.424668372674622958e+02
-1.279655381367464173e+01
1.012268117289107323e+02
3.082890440955488032e+01
-4.083771900136371258e+00
9.439792447176431267e+01
9.871112133587587323e+01
-2.403835959287795632e+01
-5.827637858277057603e+01
1.009774980519767063e+01
9.944614823733665787e+00
-6.115341615649126084e+01
-5.642120472814918486e+01
2.632936182370967515e+01
3.731300268300847023e+01
-4.057217580377643174e+01
-5.731753681646921450e+01
1.629981510681157886e+01
4.170046234188585998e+01
-1.868222619719203337e+01
-4.621361162808081247e+01
-4.347286815420536854e-01
1.345249388291418313e+01
-3.448312832371458114e+01
-2.512244882157310144e+01
6.027022762167898406e+01
7.590032447744017929e+01
2.809469418756442849e+00
-2.006133542567190631e+01
1.008558079090343185e+01
-1.059284582643338446e+01
-5.432643825239205881e+01
-4.628820535521826685e+01
-1.283664336684521068e+01
4.507783336703805155e+00
1.497942204003879851e+01
3.986115820350188699e+01
7.287314394688785057e+01
5.721086304538980016e+01
-3.544928634111131061e+01
-1.203188464153830637e+02
-1.188746218227034888e+02
-7.395022765157128219e+01
-3.947651515514489517e+01
7.275422194665106090e+00
7.511759841563859652e+01
1.001651472297163394e+02
5.042716219224455187e+01
1.279201968001793155e+01
4.706880909835562221e+01
5.775755399936897305e+01
-5.757788780609244483e+00
-3.552594841320711083e+01
-6.937828455874452516e+00
-1.577960983435114528e+01
-4.898869641759578286e+01
-4.058036769875221239e+01
-2.303419620197442441e+01
-3.396675448647565787e+01
-6.792990696341755097e+01
-1.000632278347888189e+02
-6.963991642653131464e+01
2.242719806317963194e+00
1.820101806715191373e+01
2.318874357420513732e+01
9.071371571008069168e+01
1.217960701101096532e+02
7.794597591984197038e+01
6.083840616773553478e+01
6.017494906283123157e+01
2.947012148471846160e+01
2.129734069957411435e+01
2.178622582930432472e+01
-7.260253510709947733e+00
-2.096615204907584484e+01
-5.724302007285984217e+01
-1.671004594326018946e+02
-2.469895000872837727e+02
-2.565311044109155318e+02
-2.623458935164137529e+02
-2.150523231875469037e+02
-6.310300658794916018e+01
1.498994415914424678e+02
4.117014378526185965e+02
6.174684515649450987e+02
6.024851989537424970e+02
4.398924542453771664e+02
2.047412575301785864e+02
-2.104250563006533810e+02
-6.222838451887913607e+02
-6.836974397067262998e+02
-5.243846233200561073e+02
-3.912141932121695618e+02
-1.570639317815898153e+02
1.616036518420265793e+02
2.725540760950458434e+02
2.135643956907355232e+02
2.249915234837497451e+02
2.563008279711859814e+02
1.949421994915225866e+02
1.258658212723702832e+02
1.046833336235747254e+02
6.018685950310382538e+01
-4.324477188381336390e+01
-1.378583733903198549e+02
-1.597640888715730512e+02
-1.587997155504575346e+02
-1.784206348814040552e+02
-1.380428576619390526e+02
-4.502285411104018920e+01
-3.140348743258527975e+01
-4.628488889526282435e+01
2.813998445223598566e+01
7.790109809977421662e+01
4.215272427225352914e+01
7.295800617412442080e+01
1.456858322183686880e+02
1.059507762319342135e+02
4.220782696713313698e+01
5.792505747057536070e+01
3.667704059677767958e+01
-4.522706801127235821e+01
-7.209727247832418584e+01
-6.592714609559396877e+01
-8.991755979857869363e+01
-9.471222844964459853e+01
-6.213502480976774933e+01
-3.185331884305096040e+01
-1.037551771345642493e+01
-1.128780072589655070e+01
-3.000369161396687900e+01
-4.012781487814734760e+00
5.703024939182883202e+01
8.060185120105663259e+01
8.720137197949489405e+01
1.060890621212927414e+02
7.234556337889826239e+01
-1.682315544381996375e+01
-6.797017147744462306e+01
-7.135630868128654924e+01
-8.284605157806163334e+01
-8.139132519714409852e+01
-3.443244605038710660e+01
1.308192049023122827e+01
2.887925274644431184e+01
3.413489465619340990e+01
2.143415276237683287e+01
-2.280785096594692618e+01
-4.395553228288818559e+01
-1.216444823319901758e+01
1.296283583965042041e+01
2.567493019252443887e+01
7.418800041818806790e+01
8.598408070733097475e+01
-9.495364384677035474e+00
-8.905849291556417313e+01
-6.666663549537702238e+01
-4.729064682958379251e+01
-5.823131503835390532e+01
-1.391579494089186575e+01
4.652802276513428126e+01
5.070514458295894400e+01
3.628723798216311991e+01
2.502482267939881666e+01
1.334534483819354556e+01
1.595181494540474532e+01
-1.684755209311267166e+01
-7.782219284085996946e+01
-4.265116601297842180e+01
3.167889424038514790e+01
-1.697803451731618551e+01
-6.837249471374327925e+01
1.190806828799310324e+01
4.742460146426425638e+01
-2.090080408758671382e+01
3.476511497409919382e+00
8.616407096315762715e+01
3.268531996522114724e+01
-7.606384799261307705e+01
-7.570802834775878409e+01
-2.322318470871855567e+01
1.561310341279020797e+00
4.654499130022131936e+01
1.149049199718713652e+02
9.775458558728109892e+01
-3.459650132189953098e+01
-1.344016233822985953e+02
-1.134603086981859974e+02
-7.838887588535331474e+01
-5.803521583604315737e+01
3.757104592429993772e+01
1.111191225623191912e+02
3.788426471509443161e+01
-2.505930053284625814e+01
2.832676466914233515e+01
4.211621153901789683e+01
-5.655823844514805465e+00
1.922834226073311115e+01
5.804795917079615464e+01
2.224969074267074021e+00
-6.731440563408551725e+01
-6.404858177503443528e+01
-3.088803900699235783e+01
-3.132585070929344084e+01
-5.501906524278160049e+01
-3.222151858438766681e+01
2.949706313722817086e+01
3.270876487466662752e+01
3.267793672485452383e+00
3.509307191643875967e+01
5.249702269654506637e+01
-1.123132077154071240e+01
-4.280331488950358221e+01
-9.411120868184097432e+00
-5.487819264263549712e+00
-2.198346442901565112e+01
-6.135468466291885470e+00
2.278240595852016526e+01
4.954529373041737728e+01
5.867895834731950799e+01
3.522884855473970589e+01
1.360407720047710534e+01
-1.764018362466069334e+01
-8.830969451403503001e+01
-1.140749676825356431e+02
-6.475660985857263086e+01
-4.442193816697349007e+01
-4.216972343382334998e+01
1.316750397975035014e+01
3.612850240840013072e+01
-1.193486960237449068e+01
-7.286608956688500172e+00
5.764492208042775445e+01
6.522988725716342628e+01
3.477207557347390576e+01
6.588927080104099332e+01
1.210019303248145803e+02
9.605124971739333262e+01
3.273467132806595714e+01
3.582638324784345230e+01
2.166577197598881810e+01
-1.159431267739276734e+02
-2.215227959145688317e+02
-1.968581823571984160e+02
-2.307083085079578098e+02
-3.318729665227911596e+02
-2.702335072514196099e+02
-7.787122950008165390e+01
1.111929886882618774e+02
3.813589328180019038e+02
6.652425414593816413e+02
7.123207059767574947e+02
5.228976895980586050e+02
1.877312446202186891e+02
-2.838918778676108445e+02
-6.669564547412186357e+02
-7.275911456168039422e+02
-5.868810833612392344e+02
-3.704129799189933010e+02
-5.337568465721248145e+01
2.090636545300034754e+02
2.616749656175072118e+02
2.366652711190051832e+02
2.514720319406237081e+02
2.459422835387059081e+02
1.941247298306054461e+02
1.240127671786369064e+02
4.486987671634381059e+01
-3.509588242560725035e+01
-1.133629358971050323e+02
-1.461171545695297311e+02
-8.718861216198969544e+01
-3.698129098132463355e+01
-8.503011679495743635e+01
-1.250794767430210612e+02
-1.105182660087283892e+02
-1.313473031898420516e+02
-1.212550371646994307e+02
1.672259495658980200e+01
1.298450288939845052e+02
1.052105106482487713e+02
9.333325839625808840e+01
1.637014649630954466e+02
1.715929879037940395e+02
7.902072011147188846e+01
6.347504918692781217e+00
-2.882431491816330293e+01
-1.019642334929921645e+02
-1.675109067518028212e+02
-1.190598767088858381e+02
-3.214878282037600954e+00
4.316749413130592927e+01
-5.499337992937663344e+00
-6.687548907014095789e+01
-6.758762941534618562e+01
-1.375546164310709329e+01
1.904911504646386788e+01
8.529598990088256727e+00
1.575373596257137088e+01
3.432266109290989675e+01
1.270572365412069082e+01
9.073821473356664669e+00
7.719459972763057465e+01
1.284688027059218598e+02
7.809778123827886986e+01
-3.869358143989441601e+01
-1.111204649592166902e+02
-5.467851080310296652e+01
4.132275284291982587e+01
5.465040014590043960e+00
-1.210934387672656953e+02
-1.644304481256306190e+02
-1.101468223847465708e+02
-3.346481659140039255e+01
6.658204237524978453e+01
1.865256541933565302e+02
2.305332971366010497e+02
9.162003018345365035e+01
-1.409770391285409517e+02
-1.883265441595847278e+02
-1.380946242499834042e+01
8.081140024953867851e+01
-7.062698017344076540e+00
-7.471206228239111624e+01
-4.138603756311330528e+01
1.463078334190661600e+01
3.904543533188963522e+01
2.851997165591348704e+01
5.232700611962582116e+01
7.793834915139869679e+01
-4.665124847231682281e+01
-1.625850427321122140e+02
-5.985746485703748121e+00
1.745667070013060425e+02
6.975583839762890648e+01
-1.242998156936754128e+02
-1.702930454881489766e+02
-6.823840254550610496e+01
8.840363393205464604e+01
7.666737084502142352e+01
-1.007784432627618685e+02
-8.708932733222729894e+01
1.012254863190660075e+02
1.311701903481834393e+02
9.659168122830178049e+01
1.740356640832018229e+02
1.230027880646889145e+02
-2.751405239998130128e+02
-7.425059539453457091e+02
-5.967785755707350290e+02
2.505101981713547161e+02
7.330097169414128757e+02
4.287034304235144759e+02
3.593556417620513344e+02
5.877972357403916703e+02
1.603442001020871999e+02
-4.265778072068033566e+02
-4.042701788013312694e+02
-4.047018390395190295e+02
-5.977303595167318235e+02
-5.700938767789592703e+02
-5.322919008881292484e+02
-6.434713599898951486e+01
8.764805044913373422e+02
4.663271497079375081e+02
-9.400075790041670416e+02
-4.668177555156401013e+02
1.039624412010484320e+03
9.203473944079474904e+02
8.946267118767217426e+02
2.284943197388098724e+03
1.814242219531873616e+03
-1.164363359458869809e+03
-2.705290239942740300e+03
-2.030509928993971016e+03
-1.795797246345706526e+03
-1.840990791773232786e+03
-3.878127860693971911e+02
1.369308986174834217e+03
1.421885131292445067e+03
8.167415639437481332e+02
1.188104620150717210e+03
1.330552504348990169e+03
1.788965037596913703e+02
-4.613703085238902304e+02
2.102802020026130663e+02
3.033611058094391524e+02
-4.918522788129387209e+02
-5.683320016445926512e+02
-3.158593375049401786e+01
1.048021253805507591e+01
-2.423278416189421023e+02
1.092281562911748338e+01
6.591430337704689464e+02
8.436525008143003390e+01
-2.338375669453255341e+03
-3.414068555510066290e+03
-1.176175233413297747e+03
7.107342695891937865e+02
7.195970719190870568e+02
2.500443928265432987e+03
4.754101708563067405e+03
2.457785713633594241e+03
-1.302383634440066771e+03
-9.301840152935307060e+02
3.949680021477681180e+02
-1.048618713950011397e+03
-1.756358415845809532e+03
-2.480516843379371608e+02
-1.531592262479171040e+02
-1.527714183626614840e+03
-1.544087225967588211e+03
-8.629621002880800233e+02
-7.244713818010396835e+02
-1.949576577965991220e+01
1.041944313353628786e+03
1.401318963352722903e+03
1.964412844079754677e+03
2.461437316923201706e+03
1.001372687532301029e+03
-9.974573027306912536e+02
-9.831697506174100454e+02
-3.177787644200415684e+02
-4.469977781635568022e+02
-1.089646800391475381e+02
3.772553462638869632e+02
-1.674669197705951262e+02
-4.277855217328225876e+02
-5.305731196252060045e+01
-6.045589519032256476e+02
-1.325577642750283530e+03
-1.107406720009307264e+03
-1.384811721540757617e+03
-1.893972467578193118e+03
-7.455344625876396947e+01
3.350704025307391476e+03
4.640651572421499623e+03
2.611929485008742631e+03
-7.899393007080357165e+01
-1.030498980252337333e+03
-1.186419518801769527e+03
-1.724195184052477998e+03
-7.764290276360910639e+02
1.869107456120863390e+03
1.888137617548769185e+03
-2.023164157489036143e+03
-4.628499416466590446e+03
-2.700598739214583929e+03
8.584768101554732311e+01
3.202779922715877774e+02
6.056459900318241125e+02
3.182301746605028711e+03
4.029013765547641924e+03
1.227188303645848919e+03
5.064544470579911462e+01
1.198085169839162290e+03
-8.818513405147148205e+02
-4.243159050535481583e+03
-3.694337199203321234e+03
-1.858412407425513948e+03
5.347869079926545055e+02
5.820691740631664288e+03
6.856477070939222358e+03
-2.350379172236116290e+02
-4.790721379392136441e+03
-4.003270353824324047e+03
-5.965259709022834613e+03
-5.630049513774298248e+03
4.247112272239143749e+03
1.149934222089472860e+04
5.993540012915457737e+03
-2.051277732060417748e+03
-3.147003064475368319e+03
-2.090638987602339967e+03
-3.559113796447546974e+03
-2.871565470204413032e+03
2.874604025025698775e+03
5.335911235878115804e+03
-7.981461602975971346e+02
-5.053149095423919789e+03
-7.397551590354960354e+02
2.909345220468223033e+03
1.926510895785456796e+03
1.179214828902891213e+03
-9.345541835591499193e+02
-3.573827196403417020e+03
-1.463620312097964188e+03
-1.477758399305033947e+02
-1.222823131272766659e+03
4.571371260772305504e+03
8.202171240903673606e+03
-2.699424972419290498e+03
-8.967421353961539353e+03
9.484135028900653879e+02
4.070559361642251133e+03
-3.572787720634303241e+03
-6.192126060815043047e+02
6.354653317756195065e+03
1.883405433773204862e+01
-6.595654131678564227e+03
-1.260668790189581387e+03
3.854764907042554114e+03
1.945500632989730093e+03
-4.832404490174292846e+02
-9.651489077227842017e+02
-7.523672784510835072e+02
-8.651601623219047497e+02
-1.672280053259883971e+03
-1.716235128503407736e+02
3.157121811538503607e+03
2.608737229846614355e+03
-4.108061585796535837e+02
-3.468920432231419113e+02
6.507050665462847974e+02
-4.389979643139331529e+02
-1.452959076451418923e+03
-1.738331399794731169e+03
-1.576293456615125478e+03
-3.848382102797941684e+01
8.313531781667818450e+02
-8.791075092144137670e+01
3.235143348587572518e+02
1.564250856239490986e+03
4.360102506571245726e+02
-4.534148062106407338e+02
1.598233643512377739e+03
2.483990194972059726e+03
-2.366542652163245464e+02
-2.494262527629723991e+03
-2.063197689291687766e+03
-1.465719033040247041e+03
-1.273288972563605967e+03
5.015948744370933241e+02
2.517047373534977396e+03
1.752568927243484495e+03
-2.691935130660335176e+02
-5.160111048796654813e+02
-8.601454768468192924e+01
-4.186458008538016884e+02
-2.004296749631755858e+02
3.951363564223121898e+02
-9.255795115770106918e+01
-5.971599241153121511e+02
-6.593340438003363602e+01
3.160157629689423402e+02
1.657514182285431161e+02
1.125986117895539138e+02
-9.181347211033680367e+01
-3.698197769433367625e+02
-7.676996510663349227e+01
4.906753743200236499e+02
6.753960771518910633e+02
3.400235913818366953e+02
-2.953948639613435034e+02
-6.615531913896111291e+02
-5.496125400578247309e+02
-3.489808373335511646e+02
-2.517308272948991998e+01
3.914685553164304679e+02
2.515230288617380836e+02
-2.114720617083895036e+02
-1.377018683279173672e+02
1.854531702034966827e+02
2.185818698976542294e+02
2.101840761779981221e+02
1.821291264357671764e+02
1.231102140675874868e+00
-3.646979283637337943e+01
7.283282218634410299e+01
1.025179226336582445e+02
1.185083829517259062e+02
-1.884295479403638396e+00
-3.383923120820609824e+02
-4.633604435901695524e+02
-2.982414403117098800e+02
-2.323574405831473371e+02
-2.362440492082988044e+02
-1.283369786508091295e+02
-5.906647833671278214e+00
1.663968790907663902e+02
4.711594851689153529e+02
7.260332335572377360e+02
7.414185498262560259e+02
4.742338796363575852e+02
3.183030772578293721e+01
-3.525995697423483080e+02
-5.901409775131218112e+02
-6.847097772792006936e+02
-5.508349502815010510e+02
-2.934542201627432405e+02
-1.197986224077447304e+02
4.204564505551802256e+01
2.356203763363835151e+02
3.090640115019259042e+02
2.817134668782213112e+02
2.290434268052934215e+02
1.262405513214920205e+02
7.215592655987657622e+01
8.915968387895539138e+01
2.610314546233157884e+01
-4.475300031475438800e+01
-2.607720211156026835e+01
-8.346646653952167583e+01
-1.919093003160419642e+02
-1.520164979039326738e+02
-7.660346318342770644e+01
-9.667578381003554000e+01
-8.105692783470713891e+01
-1.602446412796367881e+01
6.943807071678837595e+00
4.580917435945779914e+01
1.077097829335682206e+02
1.027717917861406534e+02
6.457851497120955742e+01
5.738305426588366487e+01
4.832314853384620079e+01
1.235529538867011645e+01
-1.170061924417613319e+01
5.683338944881057841e+00
1.031183092481300534e+01
-5.079733679322760054e+01
-8.957125942492587001e+01
-4.948777011874475562e+01
-4.460567087579047296e+01
-7.780506613572960362e+01
-3.170849937291724885e+01
2.479627788380435760e+01
1.241433694234129526e+01
3.318422944259853580e+01
7.717009991798302337e+01
3.722564787494548000e+01
-5.838037633612298549e+00
2.123181335957283622e+01
2.246753203731666915e+01
-1.244944503099040034e+01
-8.868347002011773839e+00
-8.615462613720190177e+00
-5.921320290117965612e+01
-1.072380444167784646e+02
-1.054492183598402448e+02
-5.184032605811789551e+01
3.009054926200768421e+01
1.012410675540359790e+02
1.513994649130008270e+02
1.844672552478697014e+02
1.663958290819708736e+02
5.624437868578167610e+01
-1.075747917838727687e+02
-2.012892987711048534e+02
-1.978497275031195670e+02
-2.263268267704059724e+02
-2.544311361199369514e+02
-9.003069361025936246e+01
1.352509264779161811e+02
1.591117055260932887e+02
1.600283172263274025e+02
3.024514467999170506e+02
2.824250342499530007e+02
3.634576050150029403e+01
-7.628050083579196894e+01
-7.004544971551304400e+01
-1.848025492437194828e+02
-2.440184750878819102e+02
-1.074861423030669130e+02
-2.130745721240458934e+01
-3.537892620270932298e+01
2.539805837258564480e+01
6.866640287127582098e+01
-2.483041970984815716e+00
3.097504586967345652e+00
1.055288691677672261e+02
7.622015792361241893e+01
-2.598168522673719139e+01
1.486744617971145033e+01
5.201307848288798397e+01
-8.603340327254439046e+01
-1.505358269413722212e+02
4.421795560260565416e+00
1.006040123537091660e+02
5.431996579597019803e+01
9.068874203021921687e+01
1.484892485838049083e+02
2.452400498653600991e+01
-1.518258531262148097e+02
-2.099777969256857091e+02
-1.945506269401506358e+02
-1.368664005693878778e+02
-5.850908276106805772e+01
-9.728097703809122088e-01
9.710159546540054976e+01
1.971834538007851734e+02
1.638247452149453522e+02
1.269252524280852441e+02
1.976028520954484975e+02
1.418735921349292539e+02
-7.495379567512287622e+01
-1.883395498584966674e+02
-2.196965977094991445e+02
-2.726397885495983360e+02
-1.902221888447314768e+02
1.489880486486078848e+00
9.507957787301164387e+01
1.342496336736697060e+02
1.569566991682136461e+02
6.638322581562249525e+01
-1.990403695455286126e+01
-1.811842867278430358e+00
-2.037998334269103395e+01
-5.484373413960364019e+01
4.385289369732012332e+00
2.891786916798602647e+01
-1.172536436045165509e+01
2.794976625975209927e+01
7.414215566797579982e+01
2.390428249658370063e+01
-1.184265130316910053e+01
-2.269117943659475500e+01
-8.978864041840455457e+01
-1.335514906365767729e+02
-9.707137624215506833e+01
-3.988820283088805496e+01
1.533597398959269853e+01
4.538277919601423349e+01
4.911488283760438378e+01
8.113153556713554337e+01
7.618695741569176505e+01
-1.607483980063226525e+01
-3.904127260158094970e+01
1.978783054875516001e+01
-1.353673323513152482e+01
-4.957546241138615528e+01
5.418842498163186150e+01
1.288596293252525697e+02
9.074020346314793528e+01
6.916320341524244952e+01
2.005443886036822931e+01
-1.175286178741881145e+02
-2.038709201251503487e+02
-2.143616367484560783e+02
-2.266099683765115458e+02
-1.705552119515817822e+02
-5.852124785053088374e+01
-2.657928746741215420e+01
1.458145498975103926e+01
2.170909686257719216e+02
4.445674910531505475e+02
5.112060790808773731e+02
4.430803323424735822e+02
2.784438027145331489e+02
-4.772885465129226645e+01
-4.736995322990524073e+02
-7.179506395602463726e+02
-6.109600518166356551e+02
-3.389393709272352453e+02
-1.185930745803364061e+02
8.597567282249256948e+01
2.720234741906135696e+02
2.858472262311435088e+02
1.805946311815675642e+02
1.741069770856055072e+02
2.532583750029396583e+02
2.407297294037764175e+02
1.100961647813365119e+02
-2.236513920815059464e+01
-9.502702066670782699e+01
-1.630018698601954270e+02
-2.400214751118344338e+02
-2.116590970414527817e+02
-8.200405418054188544e+01
-3.680399625100697847e+01
-8.059296352352470194e+01
-4.800100152617540772e+01
2.352128917054226065e+01
2.032277065354408663e+01
1.832329594861592881e+01
8.026201939194409363e+01
1.312461585565997382e+02
1.243047587551495781e+02
8.001953975333364610e+01
5.090144888576194404e+01
5.754480925310006967e+01
1.320277587288985899e+01
-8.161318486275185080e+01
-7.582574905596848680e+01
-2.243203874070681891e+01
-9.565288147970662180e+01
-1.646964778197541648e+02
-7.359732441827753746e+01
7.650311371616686174e+00
-1.237296766421150807e+01
1.572349216521487314e+01
8.335630271081227249e+01
5.531002407644700725e+01
-2.556844364044078688e+01
-3.537425336355826744e+01
3.638816122339710546e+01
9.479247841022439047e+01
7.059941138416978390e+01
3.369267748828416131e+01
3.698528751803881676e+01
-1.330369982462441669e+01
-1.064230400738009052e+02
-9.825501302138577842e+01
-2.881094223638160656e+01
-2.210236770604149470e+01
-3.482182927988478838e+01
-2.557090226961319246e+01
-2.260972110698019222e+01
4.485608406585880559e+00
4.529639628248897054e+01
5.821686619481168634e+01
8.280430565012557054e+01
7.749253140828632525e+01
-2.850579880183050108e+01
-1.042952198601685865e+02
-7.903036555441531164e+01
-7.720581396208839919e+01
-5.566081052685365904e+01
7.549194960398830290e+01
1.371594707214875939e+02
5.531366326375908926e+01
8.427282555986645107e+00
-4.845175392343103127e+00
-7.280849593083078730e+01
-8.215155519253931971e+01
-2.930552281933356262e-01
3.849552498119052046e+01
1.841748844981347588e+01
-1.015465266581420778e+01
-3.489420950651213360e+01
-1.310665459806248734e+01
1.174570664732479486e+01
-4.146159953297914313e+01
-6.768785064126699069e+01
-1.079385108806157767e+01
-1.539603806051304424e+01
-4.407160176393146855e+01
6.818640705054096429e+01
1.850457212679108920e+02
1.240341062265201941e+02
1.645972786224690410e+01
-1.754350663495839413e+01
-5.533008845712377877e+01
-9.907751100634105512e+01
-7.849807608621080135e+01
-3.437170494709032909e+01
-3.493005269868695706e+01
-6.851544597982683626e+01
-8.118095827233692319e+01
-3.542674100036106921e+01
4.216261054215797799e+01
9.290387166073153935e+01
9.916841813513568127e+01
6.760365333920877617e+01
2.116930017795558783e+01
5.212537719101293376e+00
8.217863521432219542e+00
-5.944562343300983542e+00
9.354156925098244812e-02
1.985221953504179027e+01
-2.360536850803178766e+01
-8.259242742579169771e+01
-7.202139847962678232e+01
-5.261214361403489903e+01
-5.664360318289084972e+01
-2.559895393443845890e+01
1.013813541981354760e+01
2.255407645144633477e+01
5.621456269896804514e+01
5.759647083388882294e+01
2.802507754817447072e-01
1.458364854475582284e+00
3.599525217174910097e+01
-4.301360093419602570e+00
-1.825221842325807486e+01
3.467698137068902042e+01
3.066238705024297406e+00
-6.805744701608134051e+01
-3.640752322834811139e+01
1.293457356892146493e+01
2.076253259536504459e+01
4.657801523979339464e+01
3.412140160367177089e+01
-2.378918485073347000e+01
-2.780812805472553961e+01
-3.142153705301975108e+01
-7.192516170899564543e+01
-5.372316322580488190e+01
-4.382347407524375171e+01
-1.063553019670218021e+02
-8.010100702636474068e+01
2.750240231340432828e+01
6.094523378764562693e+01
1.060957686458119582e+02
1.865663363053400303e+02
1.329252753359938310e+02
4.413231614606694109e+01
7.889253334679195007e+01
8.012208019320023311e+01
-3.729614176012014948e+00
-3.013014756690601104e+01
-7.160702917635204301e+01
-2.070110463327608556e+02
-2.988487175082227054e+02
-3.053030466412872102e+02
-2.808297367622390652e+02
-2.024433653293012583e+02
-7.163375601447445717e+01
1.352128902524373473e+02
4.357252837314230192e+02
6.364284614678816752e+02
6.105332298653166845e+02
4.716128863906521360e+02
1.890148638340125160e+02
-2.716149648903430034e+02
-5.950307786866360402e+02
-6.107659839395480503e+02
-5.214442821038929878e+02
-3.669118193580054594e+02
-9.268737638933787082e+01
1.129030587406045072e+02
1.693865677900105027e+02
2.164486994650810061e+02
2.599663658495240952e+02
2.440054580250924516e+02
2.036571579897112940e+02
1.373530967468228994e+02
5.088303452244404923e+01
-1.423740079032491934e+01
-8.048005772071388719e+01
-1.255262968223394040e+02
-1.024121840747659462e+02
-9.398998564349390961e+01
-1.162452835615819566e+02
-7.392384297498070111e+01
-3.098294242455350300e+01
-5.572090256551880572e+01
-4.482524915360635021e+01
7.050475070654194099e-01
1.232931217138467339e+01
5.605243657567497451e+01
9.709555994336768947e+01
3.980926291873506528e+01
6.921857251238345832e+00
4.068473662137710534e+01
1.434623196191403327e+00
-1.276001204477656437e+01
1.105365170003791775e+02
1.426167256845659210e+02
8.162722088811664278e+00
-6.108315446960419592e+01
-7.078678647845180194e+01
-1.558251280544714632e+02
-1.869356863875001125e+02
-8.169070080040755499e+01
7.284547298554212347e+00
2.451947732103656818e+01
3.960365355240736562e+01
5.398856238698209609e+01
5.294227741343947002e+01
4.460910273685368566e+01
1.979255963013320851e+01
-6.519634967854691432e+00
-5.406193961959007588e+00
1.668145357348979019e+01
3.762846042598604157e+01
3.304800205522299450e+01
1.787030271654094449e+00
-2.230754963955473613e+01
-4.652127989103018280e+01
-8.344321504413031221e+01
-5.820157231481692861e+01
3.765997796574926326e+01
6.603219153572361222e+01
-4.453490594220239629e+00
-5.161725759057999596e+01
-5.288707525019086120e+01
-6.497887115602368624e+01
-4.855551321592056269e+01
3.107340117770312204e+01
9.767935532268390375e+01
7.942740326119019301e+01
-4.909656747821741440e+00
-6.729368025378434481e+01
-3.565264845749776867e+01
3.814896870898244430e+01
6.380330301422205963e+01
7.218169777073373439e+01
9.038878964473271083e+01
2.900514929918890417e+01
-9.957184058432056872e+01
-1.456679151839220765e+02
-1.048412998345172582e+02
-8.200626017582369798e+01
-5.779821321368713427e+01
-1.030180154407642767e-01
3.184093984813028300e+01
4.231458956173111119e+01
6.506399797718421496e+01
5.243491674311051298e+01
1.986684646603709581e+01
3.604763543544979854e+01
3.918768275926690592e+01
-7.019890798748691374e+00
7.186537907724389385e+00
6.403182985433960539e+01
2.522077135864002173e+01
-5.830942283930894376e+01
-7.241443453261184970e+01
-7.449399419987088322e+01
-1.014870041833023890e+02
-8.320211878417174489e+01
-3.376893068445539114e+01
-7.252485097939138647e+00
1.893738645535802334e+01
4.777729076016514398e+01
5.801917781904973737e+01
7.079296127216947809e+01
7.631476521976122740e+01
4.329932038090214519e+01
2.313721522991168289e+00
-2.111579677300792213e+01
-3.545794649095859086e+01
-2.318585135166872746e+01
3.710440166076028667e+00
6.884840414664761710e+00
9.910339535598136962e+00
6.985882715810675769e+00
-5.562333665069824917e+01
-1.096044458042164109e+02
-7.459438686463494150e+01
-4.029217599128651983e+01
-5.113969308187206053e+01
-1.805495485882853401e+01
3.331418211637645044e+01
3.176901541770582327e+01
4.476910812234465453e+01
8.844502949905592004e+01
9.668581277557589715e+01
1.063186429041890619e+02
1.125291164456312885e+02
2.782373485258991863e+01
-5.915576324512884554e+01
-4.866938181017773246e+01
-7.147041049633749310e+01
-1.570473250908480338e+02
-1.450972145619965659e+02
-7.310825274535312701e+01
-6.499485179883254204e+01
-3.598475345683411319e+01
4.682632675762424412e+01
6.652229481842725534e+01
4.038523076906341203e+01
3.493341390047661577e+01
2.220041776388311305e+01
3.989721572440843289e+01
9.621248356171444982e+01
6.643333628780678168e+01
-1.615968018943671325e+01
-9.447020919290149976e+00
3.544219535711038560e+01
6.791615137188145468e+01
1.262795815871988623e+02
1.118942789459647571e+02
-1.290973339929728425e+01
-1.214074708234083460e+02
-2.350849237683746082e+02
-3.548923565884489904e+02
-3.099017212460742030e+02
-2.028954605816659580e+02
-2.360559143996109697e+02
-2.115003479151890247e+02
4.566322112891462126e+01
3.847024960820720025e+02
6.933959853140294172e+02
8.720048109618427361e+02
7.806116957447911773e+02
4.431380169999391114e+02
-1.114592110736223418e+02
-7.278307179015712336e+02
-9.514833246239501250e+02
-7.478100695533943281e+02
-5.331724903024519335e+02
-2.871028760601589056e+02
7.536280195489669609e+01
2.272661434059699275e+02
1.893069065881569202e+02
2.231812911095801724e+02
2.271534212181822738e+02
2.257135822465836554e+02
3.113356515383561032e+02
2.397104229799060420e+02
7.823841854861592537e+01
7.629457164136263714e+01
2.586814030931540742e+01
-5.903427010227584759e+01
3.952269848984902012e+01
2.290629155349907364e+01
-1.378212989173110827e+02
-1.164491718566771681e+02
-1.981751831436309317e+02
-4.591677677393051908e+02
-4.087391380341688318e+02
-2.292487211561829383e+02
-2.298349241093463604e+02
-1.096468490557172828e+02
8.688718312805305288e+01
2.316634901921664209e+02
4.817156284904891095e+02
4.662809665353607329e+02
1.810136119826119625e+02
2.871261817045353837e+02
3.675482396789844302e+02
-8.667020939258174295e+00
1.148716969859663983e+01
3.262493214294295854e+02
1.004743943773568731e+02
-1.668106207022111391e+02
-2.486518991360308348e+02
-5.697446806083266893e+02
-5.917018649937099326e+02
-4.218214777561747155e+02
-7.782350522829566444e+02
-7.795891069541328307e+02
-2.282933547012735573e+02
-3.304399794270840971e+02
-3.016233129451136392e+02
7.349620059730201547e+02
1.370090841621420395e+03
1.502329452039249190e+03
2.081656263503186892e+03
1.994750854628729257e+03
7.214213928045711555e+02
-4.835628924201131440e+02
-1.389548028754586085e+03
-2.145502272458474636e+03
-2.328069314007002959e+03
-1.852513975093236013e+03
-6.720039459294192739e+02
2.604600944606733037e+02
-1.762266040972738210e+02
-1.692703386442138367e+02
1.048534160194379410e+03
7.022011012084050208e+02
-4.151042935770797726e+02
5.943856037956112459e+02
1.458845737217631495e+03
9.992834869389811274e+02
2.076032337436257876e+03
3.140182559970157854e+03
1.720481393395227769e+03
1.547149526025030184e+02
-1.556630445670612517e+03
-4.227192535021195908e+03
-4.026544912831830970e+03
-1.454502365788755696e+03
-1.403624851782286214e+03
-2.518589677580015177e+03
-2.543494354210226447e+03
-2.857592340434181551e+03
-8.877196915207474603e+02
5.146290621991563057e+03
1.040711098801069420e+04
1.199238186433424744e+04
8.991392731741174430e+03
-6.108959954055854951e+02
-1.121019568213435014e+04
-1.367008186704953368e+04
-8.699912972258338414e+03
-1.632861714780036664e+03
4.885297419864705262e+03
7.640701895696945030e+03
4.705543772720739980e+03
-2.230779990221135904e+03
-8.426156279044482289e+03
-6.372910973066436782e+03
2.956339537066874527e+03
7.567313807750109845e+03
5.673004339424227510e+03
5.247421581670516389e+03
2.984428434370665400e+03
-4.375491423203690829e+03
-6.973621724427121990e+03
-2.436877953565089229e+03
1.058724092667638615e+03
2.204220785391271875e+03
1.351413923287749185e+03
-2.252933101527459257e+03
-2.818291800083300586e+03
-6.234939332907791822e+02
-2.863204310689111480e+03
-3.776779706744462601e+03
3.120707747500857749e+03
7.129774182805633245e+03
2.563988299046693101e+03
-4.975865469859973018e+02
1.503800174533731933e+03
1.469106750586269754e+03
-2.920462575411565467e+03
-5.183385113685651049e+03
2.048554732885547480e+02
5.702014999554714450e+03
9.627245704839764358e+02
-5.057272170612615810e+03
-1.062732604991146673e+03
1.744297315099307070e+03
-3.945725807422667458e+03
-4.083495283820730947e+03
3.990498020089109104e+03
5.899234312290007438e+03
8.030507633767525704e+02
-1.478665386473055605e+03
-2.988229812737694147e+02
2.400018466168405666e+02
-1.121635562431940798e+03
-2.384658612558502682e+03
7.603342608212099663e+01
3.360887706814371541e+03
1.387647961258929627e+03
-1.737345333511649415e+03
-1.673098031159101424e+02
1.274770012391948512e+03
-9.786277380149861074e+02
-2.345547935760237579e+03
-9.936055538531142020e+02
4.687258277076196009e+02
8.015327292369902352e+02
1.643101758158391590e+02
-1.248870689653346346e+02
6.702255517295453728e+02
5.665319003825934487e+02
-6.634076540615823205e+02
-4.941658500105630196e+02
8.683440453464238544e+02
1.412292324666692821e+03
8.130975945277749588e+02
-5.204506734922609894e+02
-1.291594212112172954e+03
-5.691024372177665782e+02
-2.096941557266720793e+02
-6.891941745696417456e+02
2.417140419065192134e+02
1.424544493398361510e+03
1.894830185908127191e+02
-1.500948085308847794e+03
-1.274167099218555677e+03
-3.612186183769373997e+02
3.415837750290808117e+02
1.112802503714607383e+03
1.402380969333705252e+03
1.075561060901761039e+03
5.364910053712817444e+02
-3.102340363301343586e+02
-1.010430703536248870e+03
-8.497478485640986037e+02
-3.061943953412084056e+02
-1.689926181276709087e+02
-3.622209467099426661e+02
-3.346661487644421982e+02
9.799167120203067327e+01
3.781503745758083141e+02
1.829827915806714316e+02
1.027026585896784496e+02
3.455954456509938950e+02
3.805563628053442358e+02
1.549115551748015207e+02
-3.365235417779258853e+01
-1.241532077040354380e+02
-1.010232083496400577e+02
-1.535055224175010551e+02
-3.728284698328024547e+02
-3.178065006101207359e+02
3.777805803423026987e+01
1.512362745447087207e+02
1.561459335332453335e+01
-5.015563997071671309e+01
6.880178309608679399e+01
3.618054137538465511e+02
3.678308004558230095e+02
-9.540206998826540996e+01
-2.078240448056727416e+02
9.511209746428630751e+01
-1.211103429063424528e+02
-4.759496216804994333e+02
-1.163789991879325640e+02
2.384690396854419134e+02
1.695223754099708380e+00
-1.579470819755034654e+02
6.163973499988975036e-01
1.600070318420009414e+02
2.602729451974728363e+02
1.605086328718288939e+02
-7.883038243258704370e+01
-6.833723586954927498e+01
5.286492825692823416e+00
-1.607019473184424214e+02
-1.787838352420041872e+02
7.716441613024177570e+01
1.490006161694044522e+02
-9.323823759466778327e+00
-8.565227820498402878e+01
-3.414015837334748937e+01
2.760192058844629415e+01
1.252865776637163719e+01
-6.190164650274147107e+01
-7.192807570158348085e+01
-6.880360265401037623e+00
4.343226650076568518e+01
4.530315315785632890e+01
8.668963295205321273e+00
2.296708119755802002e+01
9.706504744233677684e+01
4.234177678151971236e+01
-7.801718909862883322e+01
-6.800631917966712514e+00
7.073325565093406908e+01
-6.513588696390338839e+01
-1.356747894163351589e+02
-3.701407891631171054e+01
-5.597374640104948007e+00
1.445398249641228539e+00
6.021455146713531548e+01
2.378133710563943026e+01
-2.727915610531483637e+01
1.736840798165177091e+01
-1.835696291213425724e+01
-9.926497460273397166e+01
-2.460607843985258825e+01
5.691971287684143022e+01
1.820772849625164014e+01
3.913753861496896747e+01
1.117078558245417810e+02
7.075174956589125941e+01
-1.464579924716545278e+01
-5.926368325056586173e+01
-9.788414455377882462e+01
-8.192029626639491369e+01
-1.045845360150580206e+01
8.017052865508457415e+00
8.388133205753639743e+00
4.870314332031809101e+01
2.984168695745885458e+01
-4.003070175849128987e+01
-4.737660969618551832e+01
-5.392286258017551148e+01
-9.808595557139642551e+01
-5.099168167735052748e+01
6.146277060222108446e+01
1.110025742677637481e+02
1.443782865488366269e+02
1.571520508773453457e+02
3.610629555601940410e+01
-1.105903671971257154e+02
-1.276864945032781975e+02
-9.338332753244638695e+01
-5.046592638664097308e+01
3.341434810784845411e+01
3.959112513382017795e+01
-5.185434685648253605e+01
-6.967620542660064586e+01
-2.101441704819735534e+01
1.001281731400676200e+01
8.288566542877507004e+01
1.092784858601481375e+02
-3.896532193509045783e+01
-1.548885683643116238e+02
-9.262169212923299710e+01
-2.131454742279361625e+01
5.036628600748045415e+01
1.981765199764917895e+02
2.145051099399957479e+02
2.950332677564068717e+01
-1.018950457521984418e+02
-1.091643383978261994e+02
-9.181899662400931561e+01
-3.283137724075260877e+01
2.136259524637013030e+01
-8.091940413056553538e+00
-4.413904153978062084e+01
-6.687152912748956624e+01
-9.692234837139442050e+01
-1.244954796573153644e+01
1.262083388649168114e+02
8.032262965657177745e+01
-3.765049091913861190e+01
-9.081159325343570288e+00
4.178548567952010018e+00
-8.326755194455796527e+01
-4.436050489097834060e+01
9.424936827746208223e+01
9.922807792058092957e+01
4.554223017866826240e+01
8.269747921003568081e+01
1.033123908883848543e+02
4.027810400892208520e+01
-8.309508820576162691e+00
-3.283620597842994471e+01
-9.557178705060475465e+01
-1.765021460112380112e+02
-2.426639605743070263e+02
-2.972838735701233190e+02
-3.040108772529306975e+02
-2.070876255777228039e+02
-1.559100389628693684e+00
2.852566416048726410e+02
5.778332180571978824e+02
7.178159755745982693e+02
6.040268760258360317e+02
2.957561991751944106e+02
-1.214731694694055761e+02
-5.410671639131909387e+02
-7.347104113428206347e+02
-6.176366466722561199e+02
-3.982963502784786556e+02
-1.693899958767605938e+02
1.302482437068401850e+02
3.148877382540604799e+02
2.492701555068892674e+02
1.994771360765863903e+02
2.592641550609025103e+02
1.867765688914666384e+02
4.788873991080257042e+01
4.560406146878689526e+01
7.893279776921475310e+00
-1.332166287247138428e+02
-1.312519365991047096e+02
-3.911702675932303208e+01
-7.295967694534603254e+01
-1.065319890547316106e+02
-5.230945995070011634e+01
-6.886377920005907072e+01
-1.028339827864824088e+02
-2.430761408563061998e+00
1.014709762832904687e+02
8.127448969643603505e+01
2.733115705302554233e+01
-1.728442809391016688e+00
-2.359992151074954236e+01
-2.305850520934134806e+01
2.151078259067246634e+01
1.108520384830723060e+02
1.608143760295313882e+02
5.736202852710389521e+01
-1.026747549678118787e+02
-1.428470857286289686e+02
-1.199859551231493100e+02
-1.069984485361553510e+02
-1.525984810990954976e+01
1.009921198037167187e+02
9.152820975292176797e+01
1.811915958308119201e+01
-2.378468310677938291e+01
-4.877075563690035409e+01
-2.329092135352968285e+01
3.044765176878548729e+01
1.769408642352662753e+01
9.469947706013517319e+00
3.842957711112703123e+01
-4.628179031630213558e+01
-1.523474144776276944e+02
-6.544745300863455384e+01
3.924523615098593865e+01
7.563012602330477563e+00
5.565275732127763320e+01
1.700757755038220296e+02
1.008208394049090515e+02
-2.917889059141158015e+01
-3.343964056264614726e+01
-5.356735302822600886e+01
-1.067791904087720667e+02
-5.700893033838183044e+01
-2.234014534048894163e+00
-1.116126837717366982e+01
1.285855262383799058e+01
4.013850139737275668e+00
-7.482508898458941360e+01
-5.771937723133416398e+01
1.793997680275461448e+01
1.270702356618975237e+00
1.355402341410640510e+01
1.127589457946173752e+02
1.200430658265476040e+02
4.778697331994460740e+01
2.060246640042959854e+01
-2.087348096395768593e+01
-8.074423649006364201e+01
-7.789226296564530116e+01
-7.384516601687319337e+01
-7.699624314854595752e+01
-3.122739511859706774e+00
4.442023282469686052e+01
-1.196253427963945093e+01
-1.794131685299431567e+01
3.190086407521301126e+01
-1.682476743939319164e+01
-7.359547327256548499e+01
9.394908004693593995e-01
7.887632748059384369e+01
6.539872543844766994e+01
6.791440799145426865e+01
1.015203332389670692e+02
5.931392036167729032e+01
-4.026484267723392207e+01
-9.577205785330637866e+01
-1.148845934852250821e+02
-1.477588868339673525e+02
-1.427391838506640340e+02
-5.139525493217374219e+01
4.365284540243003875e+01
8.141071407036304208e+01
1.205540899447495207e+02
1.480689660493692088e+02
7.065332711739901583e+01
-4.736176452837712247e+01
-6.501198542716960560e+01
-2.404283950644030909e+01
-2.512568190249564637e+01
-1.904233712625543973e+01
2.852713466428757982e+01
1.379075611919108013e+01
-7.228370929723732274e+01
-8.346482539552947344e+01
-1.266232323208204846e+01
1.387832939208546001e+00
-1.577796321663646140e+01
3.177501471192080373e+01
4.811362759324759963e+01
-1.193465423467220887e+01
-8.354093413457492900e-01
5.784573795953706821e+01
1.086821457796758494e+01
-5.154720724380740648e+01
-2.532417372716303561e+01
-2.551155207048569196e+01
-4.548286001161120851e+01
3.045662575941668138e+01
1.038793167150850252e+02
8.039278181473260076e+01
2.828120829778070444e+01
-6.353047669808694309e+01
-1.739225498863216899e+02
-1.588039520244542757e+02
-7.523078983222616500e+01
-3.672874565695433091e+01
8.993029700951944960e+01
2.734771364566180978e+02
2.342883717235499148e+02
4.290719030834940639e+01
-4.436224678024392887e+01
-1.263131966560935240e+02
-2.775835814591179087e+02
-2.657960198491873030e+02
-7.423420826826593100e+01
5.672963068780376261e+01
1.055631496146203290e+02
1.562932912682850883e+02
1.508740109390428756e+02
1.037810881589976475e+02
1.016280602903554922e+02
8.230843773148858133e+01
1.404003457385861786e+01
2.088844745892035171e+00
-1.018130593635404324e+01
-1.686534561135615888e+02
-3.390816615162489143e+02
-3.457670186666853169e+02
-3.115220380841039400e+02
-2.834471325589473167e+02
-4.183945636428988024e+01
3.938980575059100033e+02
6.950919657415275879e+02
7.205585090395723000e+02
5.375271273509590628e+02
1.663875332712892714e+02
-3.136476138641597800e+02
-6.849783959873722097e+02
-7.530345993804323825e+02
-4.888754694184098639e+02
-1.082758190221154990e+02
1.241333174349832262e+02
2.212826079020030079e+02
2.788310465243043268e+02
2.081767362710218379e+02
5.136640741214565509e+01
3.260208908647233272e+01
1.081778795592897779e+02
8.086414957734233155e+01
-3.659786906484487901e-01
-3.462647882311205905e+01
-5.872226367039402817e+01
-7.219559514653337828e+01
-5.535419978593649404e+01
-3.671683505907800082e+01
-8.841620894538081643e+00
7.234337444032056474e+00
-3.642707853296960252e+01
-7.537839369208535345e+01
-6.094022700442595664e+01
-6.635032307232755500e+01
-9.181382407593186201e+01
-5.351435644643239442e+01
4.401472071442820067e+01
1.378144500301662276e+02
1.832562690583000915e+02
1.724647248704349920e+02
1.344187259770785090e+02
5.149439200661626614e+01
-8.194330977388261772e+01
-1.509753295736216785e+02
-1.247065839064406418e+02
-1.153433400306330867e+02
-1.145987252568744452e+02
-7.307922192167127662e+01
-5.394042595602488177e+01
-2.427808879453120383e+01
7.142309658201205025e+01
1.264650217597623083e+02
1.363262126935294134e+02
1.514523501988338410e+02
3.034036956033199317e+01
-1.591582981575245128e+02
-1.362054548923995583e+02
-3.189340763478756458e+01
-4.262666454589636800e+01
4.984310657807350964e+01
1.982335588468595802e+02
6.427992171643175823e+01
-1.402502223235994165e+02
-9.132292185009018226e+01
-2.474940416307474322e+01
-6.095015529246764174e+01
2.031750442593155270e+01
1.243288604022774564e+02
3.659280622595201748e+01
-1.088614781050074640e+02
-1.341566821818045412e+02
-5.367660799251658688e+01
3.106023455035484915e+01
3.191811794238576283e+01
2.781176438599783296e+01
9.209179147205119875e+01
6.264043611814496160e+01
-4.676212864355652954e+01
1.530991643713954176e+01
1.287590751254277279e+02
3.954446311161201066e+01
-6.953284333421999008e+01
-5.036801638595154174e+01
-7.049088680477269975e+01
-1.186640518678132707e+02
-8.485775417723991154e+01
-5.546789935647614556e+01
-4.233205707340238177e+01
2.978537764022351375e+00
9.969404043834838802e+00
3.418606985392806052e+01
1.414698856372567946e+02
1.506879769860472322e+02
3.618380566108160679e+01
-1.742720717010767473e+00
-2.218578885429614012e+00
-5.421158300390036544e+01
-3.699287547976735624e+01
1.292347373193043580e+01
-3.581617781786040666e+01
-7.398333488464376728e+01
-5.326793558958372898e+01
-8.171481205908762036e+01
-7.746602221444072711e+01
2.609175890054650893e+01
6.205398193383597061e+01
7.850894975304887780e+00
1.189714313474940077e+01
5.333120270643041039e+01
5.485913117306296272e+01
4.652309685239158199e+01
3.454289192278480414e+01
7.217585568553348985e+00
-2.946422417084702872e+01
-1.004251151967925466e+02
-1.473953860865317438e+02
-6.962526081487696672e+01
3.913274032122800605e+01
5.050957949873054531e+01
5.618816386319060996e+01
1.257378510796082480e+02
1.278606501743846735e+02
1.792104966041980418e+01
-6.081299376877757368e+01
-6.489396617244517529e+01
-1.040370753474136052e+02
-1.742006237549694561e+02
-1.490273893374447312e+02
-4.970638128013358426e+01
-6.839643492444844597e-01
3.470867712738964883e+01
1.266633685204504189e+02
1.727532011762545210e+02
1.212113606357850273e+02
7.236356328203967792e+01
3.412562998910456002e+01
-3.565262034857342144e+01
-6.227150104499909844e+01
-3.041180244593630277e+01
-3.234248725323080009e+01
-6.421234915988793546e+01
-8.116400371392185775e+01
-9.331106004397287279e+01
-6.964457142456942051e+01
-4.032444044384695836e+00
3.278277553526744015e+01
4.603954316941138103e+01
5.051295457131237754e+01
-2.577704908249237548e+01
-1.177108308803714749e+02
-6.358113923598295258e+01
6.130408596069638349e+01
9.005242886913164568e+01
7.107146694318272750e+01
8.680522287370233414e+01
8.147525817776275403e+01
3.700848459325797535e+01
3.928491520227287026e+01
1.128832981979673349e+02
1.298400496084442466e+02
-2.528738907877983522e+01
-2.314556220292752755e+02
-2.999891388076794669e+02
-2.948209229361170856e+02
-3.220845890343200608e+02
-2.542869406943503066e+02
-5.312605717963362650e+01
9.106012272302683641e+01
1.767770430507920310e+02
3.725575510369425274e+02
5.915348463786824595e+02
6.115983208656741681e+02
4.169681247106490218e+02
9.522840966432201526e+01
-2.959927112946213015e+02
-6.220740422882907978e+02
-7.125642987597626643e+02
-5.480772416495138941e+02
-2.658915370727570462e+02
-6.682273313742516763e+00
1.706863584428228933e+02
2.464394096189761285e+02
2.272667350252925189e+02
1.951254489506457048e+02
2.140327953045903655e+02
2.144890387631885176e+02
1.367197222420597029e+02
4.829454131397568517e+01
-1.567630918403822093e+01
-9.787994617775986228e+01
-1.621424149741876590e+02
-1.447863228603679886e+02
-9.582703537274579730e+01
-8.610358505389187656e+01
-1.069826804872666912e+02
-1.184898193765494057e+02
-8.486649718365332262e+01
-9.669161784740625265e+00
5.528454139330035844e+01
1.068824522130098131e+02
1.721617409132609566e+02
1.839384014074445304e+02
9.054306483084312163e+01
-1.061826843805933862e+01
-4.616341962533802956e+01
-6.415505947352826865e+01
-7.709223807787967075e+01
-5.864636897515697456e+01
-3.734518442819223338e+01
-2.717966597180536681e+01
-1.146094631929797458e+01
-1.283887983350419404e+01
-2.356721598141135843e+01
1.139269808950014173e+01
5.086873285552514545e+01
6.655386626574293807e+00
-5.890861044460748985e+01
-2.103753850738056386e+01
6.099281550514872663e+01
3.620817142956093448e+01
-3.638552617867177474e+01
4.375806010670072688e+00
6.797159326071111707e+01
-1.126975542552306209e+01
-9.366894469452317651e+01
-1.845176089369184780e+01
3.996647308902177542e+01
-4.681157268290195361e+01
-8.537679524016661503e+01
2.745700666250218802e+01
1.264642010663594220e+02
1.077635450445439176e+02
2.485183974084110758e+01
-6.707401845334754853e+01
-1.313630270394397428e+02
-1.385541929252119644e+02
-9.151115300875774494e+01
1.773355735259880817e+01
1.592510269473415292e+02
1.786289802768726531e+02
9.114403060631525832e+00
-1.414564943822451539e+02
-9.150989714525927354e+01
2.658559578529408185e+01
2.794764974531212331e+01
-2.452649980622607373e+01
-1.565819145865321182e+01
-2.945903173350079562e+00
-2.581806112226350081e+01
2.687459939531459696e+01
1.737205787571978703e+02
2.262135543623744525e+02
5.909178248645655884e+01
-1.860247427763515873e+02
-2.830272259718854571e+02
-1.919130483260588278e+02
-5.121233930073636742e+01
8.904205619323160903e+00
-1.958421623147140167e+01
-5.051230590576144408e+01
-5.114534618397217258e+01
-6.079419662486560583e+01
7.799703309129566442e+00
2.499558581655231819e+02
4.157356023006601617e+02
2.759870786610739515e+02
1.235280023686293305e+02
1.707872048752169007e+02
9.257853602995220399e+01
-2.138395991736159942e+02
-4.097694654977960340e+02
-4.524673375728072529e+02
-4.845752693989484783e+02
-3.397563605111373590e+02
-3.970550285393079193e+00
1.386908999975114511e+02
-1.322212572948995124e+01
-9.054695687153943595e+01
8.735776909316865613e+01
3.219706334944953028e+02
5.909476028208509888e+02
9.556591442529436335e+02
8.518694061458071474e+02
-1.030791347909591451e+02
-8.991567374512455899e+02
-7.399030289773868390e+02
-4.588272780990259889e+02
-3.699801598834180822e+02
2.624757364905963186e+02
7.266545485461517728e+02
5.274113540245939191e+01
-5.169569367343572139e+02
-2.120752960751714795e+02
-2.944852917602835873e+02
-7.896693925783531540e+02
-5.541174244977834178e+02
-7.240968560389835318e+01
1.037416755471321039e+02
8.004429014577900716e+02
1.792788043797474529e+03
1.697095358014618114e+03
5.311705059230547477e+02
-4.919993002570470821e+02
-8.497874359466123906e+02
-8.761196819677755911e+02
-6.726917399698040754e+02
-1.043102203742745004e+01
3.929681079346532329e+02
-3.998572149005184428e+02
-1.213893219099398266e+03
-6.092223536415868921e+02
2.590650000441056022e+02
2.976039242968034273e+02
1.799568358802546868e+02
-2.970853178064956523e+02
-1.265311637177064313e+03
-1.033095494047152897e+03
5.364837481618336597e+02
1.740198906939894187e+03
2.626284615328856034e+03
3.395958903709670267e+03
2.697295502817838496e+03
8.005321192498903429e+02
-6.261895856127753177e+02
-1.754565502932246318e+03
-3.801599332706887253e+03
-6.444927264788288994e+03
-6.926234613966838879e+03
-3.013925513886294993e+03
2.300864575807925121e+03
5.049651344132480517e+03
6.908764207042942871e+03
8.015373271468234634e+03
3.479751792947230570e+03
-3.813362990038945554e+03
-5.011643386756529253e+03
-2.083340900539987615e+03
-1.792935506374814395e+03
-1.789922202824940086e+03
3.362741895352741608e+02
1.357707140683246962e+03
1.805155253757580340e+03
3.183401405259151943e+03
2.738663272117434190e+03
7.240356265681099330e+02
-1.868437334191037053e+03
-7.808694639750320675e+03
-1.195387605638846435e+04
-4.982034730562436380e+03
6.153069708136909867e+03
9.189241452232539814e+03
8.609594428870446791e+03
9.695511883831739397e+03
4.073584492349299580e+03
-7.924514201849932761e+03
-1.126448739367626695e+04
-3.737777394838658893e+03
1.269329680660924396e+03
4.491224199183227483e+02
1.471068278328521501e+03
3.623303974900065441e+03
6.714735399575419024e+02
-4.154678548189391222e+03
-3.777658036385174000e+03
-5.873282422848972573e+01
1.634917450354958646e+03
1.607240935902016872e+03
1.574865804364773567e+03
1.161437447915288885e+03
1.037136717851285084e+03
6.707823800125155458e+02
-1.726467786604986486e+03
-2.139033614560682963e+03
2.576522788264388055e+03
3.960347854796260890e+03
-2.151475455448321100e+03
-3.888599485349554925e+03
1.670554184253441463e+03
7.662207808666657911e+02
-5.138547974100526517e+03
-1.147111048742746789e+03
5.652146558445771007e+03
1.945044753689903700e+02
-6.373632329465995099e+03
-1.021729902803810432e+03
4.094832229644575818e+03
1.012641120441317412e+03
7.869458668058740614e+02
4.618133006622249013e+03
2.312035698197976672e+03
-3.313963382806700793e+03
-3.542108518283255307e+03
-7.475311976341373565e+02
3.999930788226368463e+02
7.827799568108227959e+02
6.031951997759015285e+02
-7.284908863798320908e+02
-1.446265414748223975e+03
-7.941596520605343130e+02
-6.888829418185970610e+01
3.823416342792697264e+02
8.246252021516347668e+02
5.006673537205967932e+02
-7.570967705146982780e+02
-9.708837961879653449e+02
9.079174778898532168e+02
2.309746463641462469e+03
1.497324592686712549e+03
5.555920143654502681e+02
1.758306353514776390e+02
-1.069815833256697033e+03
-1.757485483085264832e+03
-8.841103434248173016e+02
-9.766886693172810965e+02
-1.741732767821576772e+03
-6.499438966927076535e+02
6.136849218403158375e+02
7.944377537460462690e+02
2.031320060137971268e+03
2.794609299942113012e+03
4.890862240650756689e+02
-1.677676605316302812e+03
-1.396968898246340814e+03
-9.759853732000660784e+02
-3.813796075267669039e+02
1.285765790146360587e+03
1.491507914614117908e+03
-1.145362910681667614e+02
-8.570668135345277960e+02
-9.069678759878415804e+02
-1.078816556959692889e+03
-1.467576358109065495e+02
1.078458509981141788e+03
7.178121094559304538e+02
-1.450028695457818912e+02
-1.739570513150090392e+02
-1.301013689944309348e+01
4.508681283009785545e+01
1.893270013478069984e+02
1.411261198766349594e+02
-3.574162168682389051e+01
-1.677810025316153713e+02
-2.924205290694534938e+02
-8.447272667252559586e+01
3.544458627983225369e+02
2.930518308928089937e+02
-1.559107710984226287e+02
-3.192101017605834272e+02
-1.877000840270721653e+02
4.214964284244889114e+00
1.454159266209477437e+02
7.779714341880553263e+01
-5.984191310508893480e+01
-5.465469202357286349e+01
-5.982088187553845415e+01
-8.278176280618022531e+01
7.993639017651621259e+01
2.337939907482168280e+02
8.663761357058169210e+01
-1.587420827298828385e+02
-1.330822858695509581e+02
1.113000300085204657e+02
1.899554834732799975e+02
1.055232994490784293e+01
-1.221894684107976445e+02
-9.673438958331068704e+01
-4.254250034526891966e+01
2.205389337171726538e+01
4.610313133416769205e+01
-1.753371837777373798e+01
-7.244350545223466042e+01
-1.940032860752866100e+02
-2.947358041975567744e+02
9.518697671048606423e+01
6.150232153116568270e+02
3.423428266560514999e+02
-2.449376533753717808e+02
-2.342534427927244849e+02
-1.981819000240736841e+02
-4.631551628678229235e+02
-1.103185317812333039e+02
6.240308049592828183e+02
5.171309708028940122e+02
-6.820799402255744326e+01
-1.505767970864500569e+02
-8.555640750000506500e+01
-2.531910003628584889e+02
-1.778267439353059558e+02
1.381477303900719278e+02
2.091219642413628605e+02
9.796912327103913753e+01
4.217999098266105307e+01
-2.771019297559980288e+01
-1.110740651761239377e+02
-2.019913705670533659e+02
-4.049650185293078835e+02
-4.764724925316675126e+02
-1.155540673062263437e+02
3.270325496750414800e+02
4.608173027556456987e+02
5.427672969953947586e+02
6.499023285910279810e+02
3.799881199870480373e+02
-1.019646917275690470e+02
-2.784739188962312824e+02
-3.640297824749259235e+02
-6.595313163182282779e+02
-7.753180774318391286e+02
-5.156051212955843539e+02
-1.516531940841378230e+02
3.025966917834153946e+02
7.575528521563023787e+02
7.674854971961677848e+02
3.867399443371208463e+02
7.096552796588221668e+01
-1.753757998566132130e+02
-3.650980232008706139e+02
-2.131888153309523375e+02
5.951696016440666881e+01
-1.389446220878826921e+01
-2.153358293291492487e+02
-1.889468733829320399e+02
-6.490175248680456832e+01
8.598507095900011166e+01
2.539153241862827599e+02
1.511509931185200060e+02
-1.656284052160914655e+02
-2.546766789500747166e+02
-1.495640060530505764e+02
-2.886578605373348694e+01
3.153716593432073978e+02
6.408175287624676457e+02
3.332062672846170130e+02
-2.919910260628792571e+02
-5.072289019466384730e+02
-4.468391665776574087e+02
-3.772360255382318996e+02
-4.740011358040124634e+01
3.984828621159816748e+02
4.638963713652330512e+02
2.413859783914253967e+02
5.956822785053907410e+01
-9.576387862674445728e+01
-2.088277286371796890e+02
-1.953042841368700806e+02
-1.715276875020552438e+02
-1.430762846737237624e+02
4.315463521298426031e+01
2.613212858754296803e+02
2.640029028624845751e+02
1.330357112065591139e+02
6.927985352185153545e+01
-1.000271727053289439e+01
-2.301593391531937414e+02
-3.562516644650249305e+02
-1.854640286230417416e+02
-4.472718614078093680e+01
-1.575775248513717486e+02
-1.191734532243627172e+02
2.088645408153327310e+02
3.506890344039340448e+02
2.593857300287273233e+02
2.881731290913093630e+02
2.566180896417136523e+02
-5.883797505051849441e+01
-2.896958533061367120e+02
-2.315466288855571975e+02
-1.360342288349522164e+02
-1.007775580093163228e+02
-9.403848886645239702e+01
-1.495415266276183104e+02
-1.748683296891900909e+02
-1.176116427831561282e+02
-4.458948481694264387e+01
1.252841522361134849e+02
3.484089439797182877e+02
3.276935671560389096e+02
1.322913983583266599e+02
9.055750421577072018e+01
9.347129626648451506e+01
-5.138428212169842624e+01
-1.301096855182966863e+02
-6.720300283210801240e+01
-1.194052332376914194e+02
-2.730351304679893474e+02
-2.615381656887439021e+02
-9.680287331646246685e+01
1.222114402090069873e+01
4.562371195115535727e+01
9.259369549630625329e+01
1.107098692483649955e+02
5.820054030338879159e+01
4.767229415384824875e+01
1.201053764766771081e+02
1.544723431444645598e+02
1.285503591442968627e+02
8.681827526671116857e+01
-3.414070317178091329e+01
-1.816431034378168761e+02
-1.884356301746366000e+02
-1.345612680077039727e+02
-1.508229340721003950e+02
-1.106253784233284279e+02
1.644054318131155412e+01
5.815863607342152619e+01
2.351953251728882321e+01
1.949598987852709087e+01
2.205395866721312359e+01
2.959051446030936461e+01
5.870743984550433936e+01
8.784231815360161022e+01
1.779485587411126062e+02
2.675225512930294371e+02
1.261678189533642325e+02
-1.545163106862741245e+02
-2.872676497548783345e+02
-3.273684547405229637e+02
-3.431643498278054381e+02
-1.443581107565589718e+02
1.785442340524848532e+02
2.889632477717867687e+02
1.905454666241259361e+02
7.719301088446357539e+01
-1.458884926255957382e+01
-7.376873689751589325e+01
-6.299223304325560946e+01
9.167468176686943693e+00
7.682765982805884164e+01
1.008993048123562275e+01
-1.432693014468985098e+02
-1.314631558852278772e+02
4.510951610417617275e-01
2.850113946719826785e+01
8.818624666970900705e+01
2.415021208815580849e+02
1.734284059139125986e+02
-6.987052496109454580e+01
-1.367430035909942490e+02
-1.226968621557465156e+02
-1.980947779294423867e+02
-1.918868513613929565e+02
-9.564993316725201566e+01
-4.027139696345480502e+01
3.762438032751452965e+01
1.028326473741946501e+02
8.281142666255450990e+01
1.279370934089611893e+02
2.002649780229805572e+02
1.187887510819967645e+02
4.986953126203658826e+01
1.023597500650492691e+02
6.822827816776340626e+01
-3.795299068602369630e+01
-8.783165068647446105e+01
-1.574165919569924199e+02
-1.983589728803750347e+02
-1.839261671057767273e+02
-3.008637597352225157e+02
-3.773166931656385827e+02
-1.637963798516673819e+02
-3.457562437293419499e+00
1.490791652090756969e+01
3.542337727987759877e+02
7.813522285720383707e+02
7.000920533617880892e+02
4.011565896709793719e+02
2.316506646601973500e+02
-1.357425530742079332e+02
-6.407110387785990042e+02
-8.005006180838133787e+02
-6.602798451972629437e+02
-4.342093147520271827e+02
-9.822946022932048038e+01
1.978112869392791424e+02
3.383134447826917608e+02
4.310939865345589510e+02
3.673348363788044821e+02
1.205924526641185821e+02
4.225423317037013504e+01
1.138257289695815331e+02
6.666295840385130234e-01
-1.242565010729007327e+02
-5.498216984909605998e+01
-7.755287466628743687e+01
-2.162783202459941663e+02
-1.754201288835252228e+02
-5.383119921536685126e+01
-2.001767571411347291e+01
4.551390008544242960e+01
9.319821828636665373e+01
2.869758056474150365e+01
2.426338425320299663e+01
6.444800291895943190e+01
-1.057948008568237164e+01
-3.119826424999379810e+01
6.172663894173637544e+01
2.629263294601647871e+00
-1.298366083713008265e+02
-7.396135718164880757e+01
1.895378477310707410e+00
-4.080226254860072288e+01
8.184418804753118337e+00
1.366869736673506850e+02
1.305756793410050420e+02
5.066796223160969959e+01
1.726987563730262565e+01
-2.929530893218984389e+01
-9.458234470070934208e+01
-1.059433963486533372e+02
-7.017220454465881119e+01
-4.667820787663191595e+01
-6.159169580957667733e+01
-5.229567766155970077e+01
2.553266192638471921e+01
6.685517705321112203e+01
4.632126230673779332e+01
8.978448367559732901e+01
1.058641717411401260e+02
-5.208683865742678876e+01
-1.544262340672477194e+02
-4.391976443658059992e+01
2.885710341790678157e+01
1.361424373229804274e+01
1.050258430679043329e+02
1.518451220046027288e+02
-2.096438622103274341e+01
-1.522293515689138985e+02
-9.489447690082256770e+01
-5.764985244156723354e+01
-5.478952898490624790e+01
3.899505586782596112e+01
7.471799514064373682e+01
-2.947750769325912756e+01
-4.630049738394364311e+01
4.254588299605260460e+01
3.921435125581381520e+00
-8.079904362754760427e+01
-1.223254556626314660e+01
3.740720051372670696e+01
-3.254483704999398697e+01
2.814520128442513425e+01
1.863720255764478111e+02
1.333167249803316849e+02
-4.396130246077487413e+01
-1.084773636511809229e+02
-1.342775152094569648e+02
-1.397607873372898837e+02
-1.584794138345204217e+01
1.055698854050677227e+02
8.378700976395485611e+01
1.428758780770321479e+00
-8.750360448547795045e+01
-1.428735360838851136e+02
-7.219024906419423360e+01
6.471714409670241253e+01
1.385754988922243740e+02
1.057709874428607435e+02
-2.977942037498017669e+01
-1.129184895148413688e+02
-1.957523541312909288e+01
5.031111604565904827e+01
3.772275705751763297e+01
1.543836968921684161e+02
1.944547302497283567e+02
-9.664852260984785914e+01
-2.898140379063700038e+02
-1.413576407467859042e+02
-8.190320496032724407e+01
-1.551618648706663350e+02
-1.562819749178928319e+01
1.552300612552247117e+02
9.285209434882511914e+01
2.245651889275794844e+01
7.590139838540720518e+01
8.888440835927445960e+01
3.192828946673211732e+01
-2.274855843688152746e+00
1.034018431921660408e+01
3.818565334048915361e+01
2.904029514810366308e+01
-2.818123405118901204e+01
-1.097179112297510386e+02
-1.841776232261713062e+02
-1.749940240054576748e+02
-8.678615856717644306e+01
-1.068644657903909945e+01
9.074866568800375433e+01
1.885487735110345113e+02
9.239795805937450268e+01
-7.027413332113907529e+01
-4.235095263551593803e+01
1.309033632437898653e+01
3.778885912046714424e+00
1.246719650688333729e+02
1.968709568745213119e+02
1.086720410448361207e+01
-1.213348712588289118e+02
-1.011909686724100794e+02
-1.533495064867363453e+02
-1.122804370273090626e+02
9.484077772185592892e+01
1.041321406994036067e+02
-4.938086672249750109e+01
-7.356112473028436227e+01
-1.027189718390708606e+02
-1.753113987496349182e+02
-6.381693373319548357e+01
9.104711239652203858e+01
8.165319529744266447e+01
5.636335440269480301e+01
7.220286624449305179e+01
6.625815117123897835e+01
1.332124711579058385e+02
2.515571257350510166e+02
2.678177720992156878e+02
1.621814908424224484e+02
-5.932504880212861309e+01
-3.177864585772550754e+02
-4.116271358691375326e+02
-3.880160980982568049e+02
-4.043146545546933908e+02
-3.211847616844235063e+02
-1.108502509791890560e+02
-7.908476095486840940e+00
1.121206648374452612e+02
4.937092711370672191e+02
8.190173211948117569e+02
7.475752227464766975e+02
4.754603686935012661e+02
1.463385562981534633e+02
-3.341716758439991963e+02
-7.328500444354417596e+02
-7.226453388584724280e+02
-4.771048298516465138e+02
-2.866312963348820517e+02
-1.143354892516941419e+02
4.511377781341541748e+01
8.952365459868509845e+01
1.517230086628332515e+02
3.288905939495998041e+02
4.072817941327034532e+02
3.165115373004046546e+02
2.206057605308932921e+02
8.281595577226815408e+01
-1.460018557711003098e+02
-2.515485944091955162e+02
-1.791770814833033398e+02
-1.303513560819465056e+02
-1.296815786405852862e+02
-8.293594248029329208e+01
-2.749614702016925349e+01
-3.299636444937420698e+00
-4.224231638833877867e+00
-2.743401418685505888e+01
-1.171591128790979397e+01
4.366243792997702400e+01
4.775592408314606274e+01
5.665910512684003919e+01
1.440151466847081281e+02
1.507095858720506669e+02
1.018444719284411271e+00
-1.032286144816630298e+02
-7.429231367161091271e+01
-5.225043405332482394e+01
-6.906333094490238977e+01
-2.628686810690061648e+01
3.452943876391549338e+01
-1.765312436798833673e+01
-1.097403504313255098e+02
-5.487171283509925956e+01
7.210673150221171568e+01
7.409635613180820712e+01
3.640269315193799571e+01
7.570528009122293156e+01
4.388389159321519628e+01
-7.062912018034649009e+01
-5.919544142843037093e+01
3.169401051345759868e+01
2.512561013602725524e+01
-2.079329684229441000e+01
-5.430664719800095952e+01
-1.195373398185550400e+02
-1.265619889823827009e+02
-4.670189639125770498e+01
1.588829802254980272e+00
6.054876798293748408e+01
1.704557041608270822e+02
1.555037279829206511e+02
3.250214418877337863e+01
1.524708732838209357e+01
2.004914871493357964e+01
-9.505994290879496589e+01
-1.375743991792718077e+02
-1.429227055955538184e+01
5.282389671041168810e+01
-2.575946860848763009e+00
-3.482439074623014363e+01
-3.864116874335672946e+01
-9.575782793460710707e+01
-1.535051118200294127e+02
-9.905765706619017408e+01
4.698976113759665196e+01
1.441160837172487845e+02
1.418483855027901086e+02
1.167618960496935898e+02
9.847160443263709340e+01
5.366099026960357321e+01
-2.388663487922541151e+01
-1.071359079185806280e+02
-1.090203016721236366e+02
-1.550820728206670651e+01
-1.236544541747840498e+01
-1.144844124061856263e+02
-7.457690852431633743e+01
3.159302862726765682e+01
-6.077265030785817856e+01
-1.375420432757087781e+02
5.336421353843144999e+01
2.319293662986456184e+02
1.837612071934803168e+02
6.758694960869195256e+01
-4.062587767671194428e+01
-1.139951652576373817e+02
-7.631950808816013421e+01
-4.021347101534166057e+01
-6.463400700783127206e+01
-1.335528827527144813e+01
2.572610925391674641e+01
-9.663997690782537120e+01
-1.471287408677424935e+02
7.974816013628105793e+01
3.159938890614551497e+02
2.082402657866422544e+02
-1.416602846467739028e+02
-2.818283772362692048e+02
-9.452523570543351639e+01
4.572986172381246206e+01
3.188870070297165782e+01
1.158697169266364142e+02
1.783962524143187807e+02
-3.324680978511364060e+01
-2.725780881704881722e+02
-2.059156237716110525e+02
1.017209716744422110e+02
3.074955309965596939e+02
1.116443301973644964e+02
-2.467957880109532596e+02
-2.167817974562278778e+02
9.197174472029963965e+01
1.549210205449484761e+02
-2.729064755602858838e+01
-1.743605775975566701e+02
-1.704257692898816003e+02
-4.370073799642721468e+01
2.577718493605935635e+00
7.340211576991910647e+01
4.745554206796794006e+02
5.838067074892131814e+02
-1.770554621445084251e+02
-6.979476374611051597e+02
-1.220614426617203350e+02
4.581153764802988348e+02
1.958317879112360345e+02
-3.066700655493939962e+02
-4.529335128030793953e+02
-2.358543652983393883e+02
-1.732475296005419452e+01
-6.902614707518267778e+01
6.498898447115990962e+01
4.521624514429846045e+02
1.523330159603430332e+02
-6.178625198948680008e+02
-4.202646542373789202e+02
6.658234784106006146e+02
1.163105874508195029e+03
3.938403037343346114e+02
-7.907199546839976847e+02
-7.921557579149981621e+02
3.687392819469473011e+02
6.933779248200618213e+02
1.408329398936737320e+01
5.393438529812694782e+01
1.843299281295379615e+02
-9.790013202870007945e+02
-1.850526950503923217e+03
-8.104515333581217646e+02
8.170197246827189019e+02
8.589582273105748982e+02
-8.567822223063295723e+02
-1.433396750346795898e+03
1.132008013932867243e+03
3.349528152725571545e+03
2.333985441581899067e+03
1.265916559607684803e+03
1.037336062777373854e+03
-1.590843617822229362e+03
-4.062994819223997183e+03
-2.342015391563575577e+03
-2.749860098207385022e+02
-8.252594480699041242e+02
-1.167126119718853261e+03
-1.582371606880932404e+03
-2.217739103940825771e+03
1.974845062569554102e+03
8.639999254609467243e+03
7.780088743792401146e+03
8.086609991604352672e+02
-2.644333640263669622e+03
-3.980848946152140343e+03
-8.209935775428457418e+03
-7.771936223995397995e+03
2.780614810673845568e+03
9.893174449902086053e+03
2.624148096148934201e+03
-5.489721340923724711e+03
-1.423561589607673341e+03
3.078732888797977921e+03
-1.019034699270822216e+03
-4.217454832498876840e+02
7.656095743766887608e+03
5.029334020879473428e+03
-7.918496628250572940e+03
-1.007787254945119275e+04
-9.036727596801561049e+02
2.751538052572259403e+03
8.971666085287332635e+02
3.074105371556578575e+03
5.590935618465880907e+03
1.741816811055185326e+03
-3.933709150109802522e+03
-4.226100002950080125e+03
-2.349725784808214826e+02
1.217947015880708477e+03
-1.250937742386490527e+03
-9.117139278556727504e+02
3.115026719888226580e+03
2.583728935816313424e+03
-1.565028959481675429e+03
-4.440160828464969427e+02
1.666616599980200817e+03
-2.645017321670264664e+03
-4.142126742359583659e+03
1.996060004520430084e+03
2.534343540710774050e+03
-3.201302799055291416e+03
-4.385557753344385787e+02
5.577340045577151614e+03
6.569585322608031674e+02
-4.068621930660039652e+03
2.690379829749364490e+03
5.040354122522512625e+03
-4.093607228101811870e+03
-6.210033270270630055e+03
1.771334148406390113e+03
2.151002450056223097e+03
-4.117983388837212260e+03
-1.946891691703726110e+03
4.563909267580621417e+03
3.070654703861081998e+03
-1.381309660822230626e+03
4.032665271879379247e+02
3.271625507635073518e+03
3.563434530407805028e+02
-3.588642114986746947e+03
-2.672710760648465566e+03
9.504791090501437623e+01
3.769060983428952909e+02
-3.937431150974422280e+02
3.841536868755497380e+01
6.821692296091298431e+02
3.834689516394277007e+02
-2.338464582845581390e+02
-9.363669658564433007e+01
9.557985209091218621e+02
1.460363624153353612e+03
3.313884340638077219e+02
-8.803363929166011985e+02
-6.367717714147003107e+02
8.971337443122430955e+01
1.958909024450835830e+02
-3.259980833611357980e+02
-1.088202757908247577e+03
-8.711091358487022944e+02
2.813807302137331590e+02
1.382779104347577857e+02
-6.961430475851710753e+02
4.986849022676285017e+02
1.637626877675127162e+03
-5.845684313891357675e+01
-9.617703239113646987e+02
1.274004589490454237e+03
2.098010769511268336e+03
-2.459955095845857329e+02
-1.555697256482415014e+03
-8.522932330110305656e+02
-8.595148330209632377e+02
-1.179285539471454285e+03
-4.357140414554660879e+01
1.275450420060048600e+03
1.050651065642262893e+03
-1.598208581772889225e+01
-5.441328927718489012e+02
-2.678497402380870653e+02
2.939637539291932740e+02
5.294496623816576175e+02
2.232287757432861497e+02
-2.212050693237912924e+02
-3.632564840841630485e+02
-3.516479228184562089e+02
-3.242090977263446803e+02
6.974924366007168430e+01
6.045479932646411498e+02
4.219467322550899553e+02
-2.202346765942972979e+02
-2.952018430779432947e+02
2.551586088149342402e+01
4.521019839428053189e+01
-4.730728263967526459e+01
-5.710596154673933711e+01
-1.857308803065379266e+02
-2.166876060152421815e+02
4.995241444141328202e+00
1.402117251380142875e+02
1.506672925133016463e+02
1.851694616167632148e+02
6.944700411476428314e+01
-1.254095809604981469e+02
-7.460670555376938751e+01
1.005694314430363079e+02
1.081422218854072383e+02
-3.852308347566287239e+01
-2.039203127300601750e+02
-2.303897573454063377e+02
-7.442665948364137307e+01
4.694092408786867310e+01
5.046375441604622836e+01
8.589349509067652377e+01
1.140989250262032328e+02
5.717687807487168783e+01
6.523707656220408069e+01
1.700029022424201628e+02
1.934305280598144918e+02
6.070451462064794157e+01
-1.729813454818311129e+02
-3.788029665766430867e+02
-4.053481859112649204e+02
-2.995465672420697274e+02
-2.253754923447987437e+02
-1.403259787876199880e+02
8.930122850919353539e+01
3.785224113126602106e+02
5.351624752049403924e+02
5.617517954159466171e+02
5.534191919405232056e+02
3.607191368163893230e+02
-1.543818820029424899e+02
-6.265492779925721152e+02
-6.841827456482533307e+02
-5.585855398454613123e+02
-4.520666789238560455e+02
-1.563263384739989590e+02
2.124413253031305544e+02
2.901835543345388828e+02
2.302217868140111818e+02
2.812411039374407551e+02
2.685359470060036529e+02
1.364925292126985994e+02
6.556845775509087559e+01
2.281153861909293923e+01
-7.263653655805090636e+01
-1.454853441778697345e+02
-1.654987103959235810e+02
-1.259480170273319146e+02
-2.912408093830307365e+01
1.864267391988762057e+01
1.161319013828812885e+01
4.411234106219704643e+01
3.387476467016850989e+01
-8.418158875650578921e+01
-1.446605922076209936e+02
-6.845446352619451602e+01
-2.639665640436481553e-01
-2.231703635984677447e+01
-3.710792914289481814e+01
4.626962882655681852e+01
1.373602150553749084e+02
1.142156941632184157e+02
9.477050047713564140e+01
1.906782061829157726e+02
1.858465155479432838e+02
-3.455896665740433349e+01
-2.039609182610651885e+02
-2.026614549443458770e+02
-1.952475646546334076e+02
-1.944919892530636503e+02
-1.091826182628550157e+02
4.222048182749563061e+00
6.661810040118704990e+01
6.629551529636989926e+01
3.817529093258220030e+01
6.544127150142331573e+01
1.326603765094755261e+02
1.321490359173675984e+02
8.920978462795464736e+01
8.064321504582612476e+01
6.101713663718227565e+01
-2.544857792991513890e+01
-1.702327975799850890e+02
-2.916529012398309533e+02
-2.574424667932766511e+02
-1.181794449678324952e+02
-3.547172724705603741e+01
7.645971344366824951e+01
2.654059137910738286e+02
2.549238853124083732e+02
3.830816418095378850e+01
-3.398197562860089960e+01
7.158618296371233924e+00
-6.052063311884724328e+01
-6.967079548134772438e+01
4.767161129160468391e+01
1.715462323586173454e+01
-1.135378986970881243e+02
-7.750583594369412310e+01
-8.898682412576450318e+00
-8.849867599910199090e+01
-1.180277643709314219e+02
4.431105355574039173e+00
6.715826977875923376e+01
3.339254842240173815e+01
1.073490354254720955e+02
2.424630941716434336e+02
1.595020413268223081e+02
-9.565424785230831617e+01
-1.925984751199158893e+02
-1.231863592201672901e+02
-1.219452529406712245e+02
-1.258504982450254204e+02
6.816031733584312136e+00
1.001677948904617494e+02
3.508957100244257532e+01
-8.411598301765543795e+00
6.238929173555202823e+01
1.405338783085589682e+02
1.334156606581944402e+02
1.168249433200218590e+01
-1.409513906989908492e+02
-1.800483983389623575e+02
-1.259414319659921233e+02
-6.581575879736492141e+01
2.521284129915614258e+01
9.922284168963398088e+01
4.402213021515407121e+01
-6.396459689386789194e+01
-8.291483695276227195e+01
8.985445554807593993e+00
1.612094954792902683e+02
2.200104479524552232e+02
8.061081713610973054e+01
-7.548157098889073779e+01
-1.085789112845317703e+02
-1.484286196427900109e+02
-1.756439004810227118e+02
-4.122963158015106444e+01
8.819549755500911203e+01
1.877171180751708945e+01
-7.537576000721782066e+01
-2.191064306589303357e+01
8.183929845873795728e+01
1.151693844130640088e+02
7.581780402875935465e+01
1.930587497079585901e+01
-3.857311157486108755e+01
-1.222157681525278861e+02
-1.361822258396829284e+02
4.290111393535250173e+00
1.061511474612276089e+02
3.656149184399007623e+01
-1.622992472450158630e+01
-6.841338852257820236e+00
-6.504911186422900471e+01
-5.779222436257431639e+01
8.736971092871239364e+01
1.104746186924227516e+02
-2.828580079707746719e+00
-8.013286135924005293e+00
1.432123663191185869e+01
-7.856964104229696488e+01
-1.097006771506311935e+02
-3.438474036234772058e+01
-5.269474414268497497e+01
-1.248704510248563935e+02
-7.110863655095904790e+01
3.866711647122865259e+01
7.704955409614007067e+01
9.297036664956425511e+01
1.097928517280472960e+02
6.176231671403836287e+01
1.090981629171945499e+01
6.492285490100375966e+01
1.292327755258995978e+02
9.015926156702235517e+01
2.766476336962838189e+01
-3.598598491696041890e+01
-1.826128911147864926e+02
-2.980439763741633783e+02
-2.588030990408639695e+02
-2.073444162129787571e+02
-2.138919730039801550e+02
-1.639384196930919870e+02
-5.789933672032857714e+01
1.121581040122819388e+02
4.066814877166646056e+02
6.389533298598134934e+02
6.502630959164811202e+02
5.412923337815791456e+02
2.157302724239506233e+02
-3.961729058751016623e+02
-8.047109920560728824e+02
-7.275031126765244380e+02
-5.530722478251507255e+02
-3.822895558978416375e+02
1.669850100296461193e+01
3.499534701386705819e+02
2.961509030848496877e+02
1.700979929454152852e+02
2.111170433905577681e+02
2.290950743674890191e+02
1.615628559353073399e+02
1.094959003691215713e+02
7.187372968311316868e+01
2.372207012219712752e+01
-6.079009160285360736e+01
-1.656348049726369709e+02
-1.740370035881673800e+02
-1.158394314109840195e+02
-1.452085381028803113e+02
-1.856762327985280763e+02
-9.878314608327630708e+01
1.866929580014340928e+01
7.012855225041913343e+01
7.806952904696824191e+01
3.787765023561981081e+01
-8.207337963472859599e+00
2.878464488204332206e+00
2.617495401598457860e+01
7.248111548633289658e+01
1.818537045822921243e+02
1.992556645872383854e+02
4.784959866537581519e+01
-6.648367299000682351e+01
-6.818419643237319860e+01
-9.734178361145315250e+01
-1.318864291407896019e+02
-9.215770466761455282e+01
-8.920017924194505099e+01
-1.636739857295875424e+02
-1.632538005212969381e+02
-4.899748499628888254e+01
6.071688423542020985e+01
1.328905862727947067e+02
1.953878421326162140e+02
1.902024421064286912e+02
9.770464638168024862e+01
3.013041527238160455e+01
2.072701984219392912e+01
-2.617954271171468150e+01
-9.538346053805668134e+01
-1.023924623013407853e+02
-9.278406661380768128e+01
-8.841392328284753432e+01
-2.955608955334657040e+01
-1.038208473387398634e+00
-6.921372965830063606e+01
-7.951570300609665765e+01
-3.088731747281984852e+00
1.961063989805633057e+01
6.004144732660519423e+01
1.788305116029351041e+02
1.627962511530520260e+02
-8.155532684531539900e+00
-8.474284693233589394e+01
-6.088910458842210005e+01
-6.393853068218189861e+01
-3.871743379692445330e+01
9.050005269658694118e+00
-1.585513726278802338e+01
-4.397366365204968730e+01
-7.126364095206096927e+00
3.221765361743919698e+01
6.731565462967986946e+01
8.706006564831285743e+01
-3.388608206616342322e+00
-1.607146614926172674e+02
-2.114019788884519642e+02
-1.113159122777943963e+02
3.249851396214713617e+01
1.135664951892235592e+02
1.315033975079347215e+02
1.392085137101612986e+02
8.451224523732975058e+01
-6.011716916310916048e+01
-1.113843272538629776e+02
-5.395245815863500383e+00
2.686884772720529568e+01
-5.590665364268132009e+01
-3.571627166213522742e+01
4.956148235622771381e+01
6.866997894227492516e+00
-7.734355141610667772e+01
-6.495381283452877597e+01
-4.567139770343442251e+01
-7.130183281624486824e+01
-4.106369219352868072e+01
4.519516284480233992e+01
7.322967526801964766e+01
3.133967803223975679e+01
-4.906790558067705810e+00
-1.257415028381721633e+01
1.690388022745588259e+01
9.761106292037510457e+01
1.420146721513913235e+02
6.365415599126157531e+01
-4.893650749896671215e+01
-1.124401253712029387e+02
-1.639930427346389479e+02
-1.486132708782041334e+02
-1.800083250224427189e+01
5.935178493379872577e+01
1.623036240531584440e+01
3.479826782177147138e+00
4.970838641335132202e+00
-5.922411249499605645e+01
-5.125490171171964704e+01
4.318719555110892117e+01
4.409134035085759251e+01
5.860765290016940021e+00
5.354423934735644508e+01
7.407020492468295458e+01
2.676095100882330158e+01
1.678146220531613153e+01
1.166091456751966149e+01
-2.712318032364259324e+01
-3.326711313954059079e+01
-3.044033876118752602e+01
-5.146928670247307736e+01
-4.936246885698122355e+01
-6.435243659684054762e+01
-1.095250092589617168e+02
-6.195076031295851493e+01
5.326624128490084331e+01
8.390571902018702133e+01
5.130286809860020014e+01
2.670267052009671005e+01
-2.647201488907319344e+01
-8.986868644044726295e+01
-9.125315941949610021e+01
-3.108715429664357899e+01
5.345758436907071598e+01
1.132790271603200551e+02
1.310011363003027327e+02
1.637951809210316014e+02
1.823564134282846680e+02
7.991129082568045305e+01
-7.928152754489033782e+01
-1.750278484881444001e+02
-2.408892695479505619e+02
-2.745449965533461523e+02
-2.061310110928862400e+02
-1.147245671145254420e+02
-9.879569962747886791e+01
-1.146898077791791479e+02
-9.945896341576170130e+01
3.177522394122529192e+01
3.387915430521114217e+02
6.356360243338541522e+02
6.915319227620726679e+02
5.208470553708687021e+02
1.597422466670391543e+02
-3.719818799588306319e+02
-7.924722798290428045e+02
-8.260635729843030504e+02
-5.782329389905055450e+02
-2.607838896663884043e+02
5.573142663064687241e+01
3.032751081076969513e+02
4.089162102538490444e+02
3.679335905829994431e+02
2.393749042333976149e+02
1.457352617947232432e+02
1.009639922449947136e+02
-2.614684811411909138e+01
-1.683642063109189166e+02
-1.380316261974379017e+02
-5.365239586368953439e+01
-7.136279621441829590e+01
-5.062809024614109887e+01
2.938592298482464216e+01
-5.140904818132971066e+00
-7.927128303337858028e+01
-5.946577417783029773e+01
-4.749884475766855729e+01
-6.386107619375771094e+01
-2.043197486471537161e+01
1.737629464207866903e+01
2.264151736158059691e+01
7.106783326514126031e+01
9.336392494412348242e+01
3.909632312002040777e+01
1.871433551390857630e+01
2.646963335099274062e+01
-1.173442988678218057e+01
-1.683768241093531515e+01
3.272181351391823512e+01
2.366336963416697259e+01
-3.671075315929501670e+01
-5.980702133968939904e+01
-6.475619129532962859e+01
-9.907571847130388676e+01
-1.224605525897600842e+02
-6.793651902021396438e+01
1.975439329385717002e+01
2.986401794099798224e+01
2.259821438635527002e+01
1.125630954157256696e+02
1.578002259602153572e+02
4.678293992339750673e+01
-2.524019498683693286e+01
7.083412643007939380e+00
-1.909577021994030588e+01
-6.536733151288403576e+01
-3.787067479699307171e+01
-3.200646316591549834e+01
-5.534177726544088216e+01
-6.266947168398591828e+01
-1.081861798708954296e+02
-8.237815193425956295e+01
8.522580132245788320e+01
1.248572830643568921e+02
1.086641140628589319e+01
5.465397714578084987e+01
1.428149538340286711e+02
3.567280262176999450e+00
-1.221523636481145871e+02
-3.558303497705139051e+01
1.608521702831206923e+01
-7.222040742469863517e+01
-1.216796347255679223e+02
-4.089395483265681008e+01
9.093788170920493030e+01
9.251193606823790105e+01
-5.030528677117791148e+01
-7.502103957781845622e+01
2.404757044661224086e+01
-1.779172664345912835e+01
-6.483525736818731389e+01
1.055558638870891457e+02
1.974060965582465315e+02
2.394139366662033552e+01
-1.202261538091995590e+02
-1.229332760495345553e+02
-1.033180717080843465e+02
-2.734207742096828042e+01
6.836021685363911615e+01
6.005955354658894407e+01
1.595466669658738645e+01
-1.218521906183615400e+01
-7.485574123821088222e+01
-8.414449486367480802e+01
2.188669729350372961e+00
5.651426167586019744e+01
6.277970043194392247e+01
5.205818907009572882e+01
-1.018922581758349644e+01
-1.406252536516164042e+01
8.867082414527405376e+01
6.846215174269987358e+01
-9.649610768021243246e+01
-1.281261689312270562e+02
-4.774080819305757473e+01
-9.481592470072961021e+01
-1.628049709577799433e+02
-3.884847260144855596e+01
1.239257636590426017e+02
1.150585355959435532e+02
4.810135988154055298e+01
7.500020723706316517e+01
1.038250013293914691e+02
3.966683481186611004e+01
-4.383085895493498185e+01
-7.751791791526963493e+01
-6.082111136073923774e+01
-1.442639820797245775e+01
-1.646098479870817144e+01
-8.311998565476974932e+01
-7.200468651440060341e+01
5.640619483368595155e+01
1.111719411644311037e+02
-7.825927995786429392e+00
-1.274847150689908233e+02
-8.989010080610819386e+01
-1.674377992066474263e+01
-5.910184677956241472e+01
-6.668923662679303277e+01
1.080339743479707408e+02
2.195904100512539117e+02
4.950654598446448063e+01
-1.439865413695493714e+02
-5.901552926793761600e+01
1.784206502999918200e+02
2.382920599274688982e+02
4.468245771864592086e+01
-1.003916942573678028e+02
1.389128650248513175e+00
4.672325897530183880e+01
-1.782030841203299474e+02
-3.288974652441562512e+02
-1.890039904814152862e+02
-6.523206369302573648e+01
-1.850890387846041847e+02
-2.709954739276786881e+02
1.014721178257288869e+02
5.856572728716415668e+02
2.297233565430095723e+02
-5.702878597023334351e+02
-3.273515779740592393e+02
5.712538357216216127e+02
6.818934226689198113e+02
5.597180154212483103e+02
8.715094286293330015e+02
4.604588096249642604e+02
-7.328616487462812756e+02
-1.337050743196334679e+03
-1.215492905052583865e+03
-6.290461062484537251e+02
2.071417389834543883e+02
5.257420937176820530e+01
-6.963357174615002805e+02
-4.118809005860171624e+01
9.324179055676022472e+02
5.278077182313772937e+02
7.345017339168506396e+02
1.833822205910609682e+03
7.777281157574915369e+02
-1.411340899533526681e+03
-1.409604880290731899e+03
-5.729768418420781018e+02
-5.921107920172302101e+02
2.709033998087675172e+02
1.454930246072464342e+03
6.164686434986480208e+02
-5.742177244308234094e+02
-2.889999908615972402e+01
4.998058699903232878e+02
1.374526674722747543e+02
2.723996776498038912e+02
-6.294234218588985641e+01
-2.474984722232850345e+03
-4.857947005734617051e+03
-4.489583693285546360e+03
-1.366247398361453634e+03
3.586270910217665914e+03
8.310580364838246169e+03
9.547255932392308750e+03
7.024042195279206680e+03
2.428616894333584241e+03
-4.560266948586427134e+03
-1.117628258009991077e+04
-1.084847903306394255e+04
-5.098983200740821303e+03
-1.783758419468560305e+03
-3.585580000454942962e+01
4.698209668998747475e+03
7.584428580914684062e+03
4.390500196617944312e+03
1.369591832105840240e+03
2.444879631198765310e+03
2.057442810939364790e+03
-2.391181688418058002e+03
-4.824464718850199461e+03
-1.702127187651970644e+03
1.396424291171430241e+03
1.668428951286554991e+02
-8.925912010975400790e+02
7.796679868445763759e+02
2.469391494034627499e+02
-2.777295213326457542e+03
-2.658721312764940649e+03
2.109429959617830264e+02
1.473580253745000846e+03
3.897567076272471240e+02
-1.363026629833753532e+03
-4.111856264118829927e+02
3.204174725826595022e+03
2.917872328008109434e+03
1.751050044562438401e+01
2.107398705060011252e+03
2.558028796165975109e+03
-4.046136925606224850e+03
-4.106029601208566419e+03
3.140660635477782762e+03
1.405951770027665134e+03
-3.369457324750822409e+03
3.671819022598693323e+02
-1.273473595127805567e+02
-6.190402348170925507e+03
-1.873984199335137873e+03
4.033615809660496325e+03
-2.323940556587125457e+02
-2.218319691164262508e+02
4.800395418704831172e+03
5.835221103507850557e+02
-1.740264459155252780e+03
5.860429084124743895e+03
4.989319665578226704e+03
-3.367627540996130847e+03
-1.617151554338842288e+03
6.348604951913511059e+02
-6.846754518046062913e+03
-7.962144954869605499e+03
4.992163134825142379e+02
1.978158400856311118e+03
-1.793133190702540105e+03
1.917937618071335919e+03
7.919975479267114679e+03
5.449816819510373534e+03
-1.013380150431095103e+03
-2.069337164406722877e+03
-5.875703361675032284e+02
-3.427823687879276804e+03
-4.762775944220569727e+03
1.842046840046956504e+03
6.369982257133021449e+03
1.402022341033751900e+03
-3.231367646606192466e+03
-2.596921072220993665e+03
-2.985338117513083944e+03
-3.068550091973020244e+03
1.120683674762590044e+03
4.408109210146361875e+03
3.788347125154133209e+03
2.083525839079965408e+03
-5.305518085670431674e+02
-2.685639750633666608e+03
-1.334135341462115775e+03
4.055063623988585277e+02
-4.794653774156982990e+02
-5.369865244776462987e+02
9.123728502599238936e+02
1.904034668627547831e+02
-1.679531165334146408e+03
-1.259689579075695065e+03
1.814237094786754767e+02
2.163139610484420530e+02
1.814011651092914974e+02
1.648444398667996893e+03
2.652229714548735046e+03
1.331137512606047494e+03
-5.568908319792521979e+02
-1.358542207797097944e+03
-1.886061920533748207e+03
-1.895922686959178236e+03
-4.414180404598216114e+02
9.162358468596647754e+02
7.604978088474624656e+02
1.389431633958032819e+02
-1.932295850093501599e+02
-3.629376365103428270e+02
-6.571255873915785628e+01
6.456496345104727652e+02
1.223662986645494811e+03
1.134223553756997262e+03
1.294765010390740656e+02
-7.613832437377516271e+02
-7.067312224169756973e+02
-7.945293553871780432e+02
-1.132798765899270620e+03
-4.376948395190489123e+02
4.020542865259441783e+02
3.287819314954374477e+02
5.725420021680737364e+02
9.528324183278093642e+02
2.007931413838741435e+02
-4.424620533101690967e+02
-1.907790673294191208e+02
-2.897852596398030300e+02
-2.983393684827580046e+02
5.186787957975384415e+02
6.812893101579783206e+02
-8.315484360255757679e+01
-3.713397845816056133e+02
-3.147579741382888301e+02
-4.288179579737210929e+02
-3.038451880620583552e+02
-1.273317007029078383e+02
-1.251919596136036006e+02
4.779581611133832553e+01
1.890688822430543041e+02
2.597573762903782040e+02
6.844487718653392676e+02
9.216641973403601469e+02
4.155792403680883922e+02
-2.149922875896353389e+02
-5.877501653023656445e+02
-8.065389385834079121e+02
-6.784295945330731001e+02
-3.425043578000958178e+02
-8.883343077116069253e+01
2.227569458154583515e+02
3.625068694223789407e+02
8.667626653358456679e+01
-1.106455532755686200e+01
2.430794667339548027e+02
2.526483873603424115e+02
9.185955459683256663e+01
1.492555210719056618e+02
1.671064137480218506e+02
-1.079585147975322457e+01
-1.398640181596638286e+02
-1.741597499213481512e+02
-1.720532227443552244e+02
-1.423264739756488950e+02
-1.500274567729522914e+02
-1.511678350381206144e+02
-7.948291620826779535e+01
-1.594150941931242116e+01
2.784210723758835115e+01
9.261654491404971168e+01
1.307324611680340922e+02
1.379982844438559937e+02
1.132819465989210954e+02
2.712647142728742722e+01
-3.129678806206652553e+01
-1.640826456937787015e+01
-1.292661477718108287e+01
-9.423733413606370846e+00
2.141700655297879763e+01
1.694215274399556392e+01
-6.035706940311407642e+00
-2.510235901360839605e+01
-8.393987955618726460e+01
-1.192802675283253251e+02
-9.301457592468007363e+01
-8.614468726012317745e+01
-4.867720004041607496e+01
6.459649437603115985e+01
1.079337424706282604e+02
6.628386662326222734e+01
4.783034252308328860e+01
-1.902169729671665088e+00
-7.347723873583451848e+01
-3.343399037045523414e+01
5.043533112954814612e+01
6.381684231140138053e+01
6.284574990456095378e+01
4.788316679158331368e+01
-1.958397634433259782e+01
-6.104739967443025250e+01
-5.825798299475725628e+01
-6.255758688134455525e+01
-4.761885417412839416e+01
-2.942870154785841308e+01
-5.175035253853225470e+01
-5.821070497270842736e+01
-3.002970319263299359e+01
-2.038307948598499841e+00
4.722494678085562470e+01
8.747434297248564405e+01
6.403844910253725686e+01
3.913030381626690257e+01
4.155250032242750535e+01
1.233762478338686464e+01
-2.094193902783305816e+01
-1.916902824091554436e+01
-3.023069014880812588e+01
-6.011767731067067899e+01
-7.551900520889110169e+01
-6.653550464395782171e+01
-1.622382081483349481e+01
3.241256628041265486e+01
2.387176815662598983e+01
2.643588185087750730e+01
4.605357464189044947e+01
-2.275502988409582628e+01
-8.829027592681651981e+01
-2.343242485433189870e+01
2.090896032339235688e+01
-1.813245281760625360e+01
2.232865693918411765e+01
8.111879209832572712e+01
1.716200958443921820e+01
-1.836267979238853343e+01
4.481757978794544783e+01
3.063768635913375249e+01
-5.130264563199825290e+01
-6.293524006549449723e+01
-4.892998892282679435e+01
-6.303737816411388906e+01
-5.706452148123282342e+01
-2.019995678617870993e+01
2.813037022518704333e+01
3.929558011064273870e+01
-1.840468491698837994e+01
-3.404214844397385775e+01
3.443031738840799960e+01
4.185116880853669841e+01
6.152641695230725460e+00
4.776878300853483950e+01
4.683673064465748581e+01
-4.063105694874477791e+01
-2.497396482112462834e+01
4.548667872030448933e+01
1.323840623392380067e+01
-2.704225694867946395e+00
1.244163710086580465e+01
-9.931105244159388690e+01
-1.854412052456911226e+02
-8.786745359540334732e+01
-1.925364947389144987e+01
-3.517896359455340161e+01
4.732751591060004159e+01
1.265301142322255146e+02
6.136120942173129578e+01
1.054405849207692469e+01
3.520958110523168472e+01
2.755265202413762893e+01
1.530692249499899305e+01
1.588537528469122329e+01
-1.976706144088013772e+01
-1.370885007904695030e+01
3.211497617813244432e+01
-1.755815308624477211e+01
-7.336489818848090749e+01
-1.197794932002365442e+01
-2.381092957271908617e+00
-9.246638388388534224e+01
-7.714217603974751114e+01
-1.392142398271902337e+01
-9.155669088092500374e+01
-1.577849150697214782e+02
-6.115787321770027773e+01
3.992610577272758121e+01
8.729495531128911523e+01
1.804609145731511148e+02
2.255580812628036824e+02
1.329291118959941116e+02
5.594159593123087149e+01
6.344438327085473617e+01
4.363258002483827624e+01
3.863668947971393486e+00
-2.790814681861093938e+00
-7.277363071055211208e+01
-2.353431452666436599e+02
-3.480661619840174126e+02
-3.497161488626878736e+02
-3.052497680417685615e+02
-2.277934437628869375e+02
-8.335888881620299173e+01
1.228599939929405878e+02
3.603029563056405209e+02
5.757652109521851571e+02
6.829659471528732411e+02
6.121770633307811522e+02
3.384969864820369025e+02
-1.061422190265381715e+02
-5.584487337273375260e+02
-7.665647098364297563e+02
-6.593024632551603190e+02
-4.225627564470736957e+02
-1.788177028007792160e+02
9.799136740777673538e+01
2.786243801095907884e+02
2.153323273215982283e+02
1.219477252406105237e+02
2.008340179701548607e+02
2.375724549902434717e+02
1.159855854830054085e+02
6.323152719744891215e+01
7.918739665202564026e+01
-2.344862845221658887e+01
-1.103334896539296182e+02
-4.445324113328907600e+01
-1.557123475798263001e+01
-9.029263092651729039e+01
-1.275903912729158378e+02
-1.468377057927871476e+02
-1.743663040005604046e+02
-1.007226582978206864e+02
1.497056527932187109e+01
3.520440087516333705e+01
4.723159195595590631e+01
1.122698856295096874e+02
9.735008566050264278e+01
1.637288256403020981e+01
3.814894902796915943e+01
1.072649216399163663e+02
4.660409168751954212e+01
-5.769103079575391746e+01
-3.144314867012749204e+01
2.098474838664723308e+01
-3.555697307147542574e+01
-6.690163001081900518e+01
-4.850593643253988674e+00
-1.943552358660183188e+01
-1.138854868564752110e+02
-1.082961722426851168e+02
-2.208099206964339345e+01
2.829107509761106343e+01
4.853553610174621724e+01
3.621190831609726501e+01
-3.956713038373271374e+00
-6.828550111972914394e+00
-4.148176750184923378e+00
-2.108912533594807570e+01
3.050560264874100014e+01
9.281257137231648358e+01
4.208759242458801708e+01
-1.550980722827605973e+01
2.257237114673574574e+00
2.182770273191003696e-01
-1.634965887842289334e+01
-2.414899299813046341e+01
-8.527687923049913366e+01
-1.145806056906067880e+02
-5.838241992143466064e+01
-4.985869574397985104e+01
-2.419138065113943981e+01
1.221567486968322527e+02
1.407191927996919105e+02
-2.440313089132055069e+01
-4.501387704685228641e+01
4.537012197233304533e+01
-8.830661374245222461e+00
-4.787304113883892853e+01
4.458121096037882580e+01
2.890329833405433746e+01
-8.761754053467753067e+01
-7.806101282903676974e+01
-6.384046713852799648e+00
1.625943920754160388e-01
1.247039992487611748e+01
3.815314559353105750e+01
7.946752497474673049e+00
-2.803444960732133140e+01
-1.316255183899406589e+01
2.252931757399432300e+00
-1.422940383311325618e+01
-1.746721714694724525e+01
2.755734893106227545e-01
-9.555562399822985498e+00
-7.257919135820495526e+00
6.501918191809892278e+01
8.590526240650908107e+01
-2.363190067261356830e+01
-9.634176233900346631e+01
-7.251510358072746953e+01
-8.070551918629956845e+01
-6.158060343546075188e+01
5.557036685999209880e+01
7.761164350192643724e+01
-3.190866129752062008e+01
-5.903975223238312253e+01
-3.338367100899551687e+00
3.105580137665878837e+01
1.061066661741901669e+02
1.826818004278011642e+02
1.133704142466634011e+02
-4.979630389091052223e+01
-1.728812700908022464e+02
-2.169374009785279611e+02
-1.640494711601496363e+02
-4.953414665514912230e+01
4.863136379606999782e+01
1.041835374874445392e+02
8.068846112499635126e+01
-8.236808181523819883e+00
-2.883641536889236079e+01
2.399835236989612852e+01
2.708690703429525115e+01
1.404436142842985191e+01
3.532290629222841005e+01
8.954507691726036001e+00
-3.837898337001561799e+01
-2.637563802928462664e+01
-1.569536671804752537e+01
-1.895629834540010350e+01
3.034311907403453468e+00
-2.011195721578856777e+01
-6.434336936305828658e+01
-2.345071163870011333e+01
1.355024001626463992e+01
-1.574430961029628051e+01
1.358979131806897200e+01
7.087343852613628314e+01
3.070109856247209379e+01
-1.983367034755399416e+01
-1.399915442613174399e+01
-4.040394219596024072e+01
-8.447640902685655817e+01
-7.788895410294782096e+01
-4.586051317490299795e+01
-1.087436848722711957e+00
3.954208417659882002e+01
3.636420099720321275e+01
3.738994677899722063e+01
6.292661283754925705e+01
5.632627567537622326e+01
7.324984220781362865e+01
1.430002061875471782e+02
1.183133807491311700e+02
2.137667082153162923e-01
-5.539437543699756361e+01
-1.183959727898603234e+02
-2.912275447381974232e+02
-4.024383370395651696e+02
-3.535052165898156318e+02
-2.839816100971311812e+02
-1.776838628583356297e+02
1.314772344908891455e+02
5.407570621875621555e+02
7.656871069805888510e+02
7.441399066974864809e+02
5.589788714568376236e+02
1.760887814905240134e+02
-3.592036166790098264e+02
-7.545167488481416740e+02
-8.304519089581175422e+02
-6.860048741494188107e+02
-4.000167606462628669e+02
-3.419237260998038863e+01
2.348371624093368837e+02
3.613094291602806720e+02
4.226008046157185163e+02
3.609109478198161582e+02
2.010245254963625143e+02
1.254988483669020383e+02
8.325216089348394632e+01
-4.855148305570720879e+01
-1.269641635877991632e+02
-1.036446463175456785e+02
-1.113399525093757347e+02
-9.914804046637392787e+01
-4.660538006488982177e+01
-9.037647579312908874e+01
-1.440591726578876717e+02
-1.131018749734972744e+02
-1.447955501775053335e+02
-1.386166873783381845e+02
1.034786524375696786e+02
2.920461339868755317e+02
2.108098195617403121e+02
1.376967784233891621e+02
1.181937573879012291e+02
-5.351102781473725400e+01
-1.901966398582232785e+02
-8.657094829682685599e+01
3.953038735277837645e+01
2.814247237917915356e+01
-2.845204606065964015e+01
-8.325646989103375972e+01
-1.201958557319709371e+02
-9.482265286785644776e+01
-1.323791756074681203e+01
9.017575084488107962e+01
1.322479047458049024e+02
5.273949180128241210e+01
-3.309714361807944272e+01
-4.190562969040428243e+01
-5.427655065402863954e+01
-3.955580669445125608e+01
6.476933837531170468e+01
9.751993702980325907e+01
-9.418374498437588116e+00
-7.760951905220633762e+01
-7.448539803011463789e+01
-1.007616620798160767e+02
-1.032232329515349392e+02
-2.034494742555011726e+01
8.912924725617807553e+01
1.563906145963838412e+02
1.197296040770535512e+02
1.780843890803852148e+01
5.755304000920578034e-01
2.238931226411506259e+01
-6.994906613108290117e+01
-1.268494964805192637e+02
-4.372356775068954704e+00
3.463591653285143224e+01
-1.361372713153500342e+02
-1.861817547644970432e+02
-4.706937642717000436e+00
9.101766289330217319e+01
2.466380546081071756e+01
3.342120492813549504e+01
9.440343787479324078e+01
1.403528373004031593e+01
-8.732151130162574759e+01
3.354547759238791116e+00
1.572233286694015533e+02
1.490733148665301826e+02
1.741298196826284439e+01
-9.810348963302953962e+01
-1.576471230336618703e+02
-1.588858613265301756e+02
-1.072632705244610065e+02
-2.162368102497578803e+01
6.861645324047316308e+01
8.134793372807806122e+01
5.404005151706685162e+00
-1.151885606326056077e+01
4.601904993499250907e+01
1.617921556423290852e+01
-5.042868441358967857e+01
-2.566596255347456434e+01
-3.854216847231660381e+01
-7.359132517955859498e+01
9.254832338217966026e+01
2.383421754021602794e+02
5.500598627865566925e+01
-1.258208489577065734e+02
-8.144608730117955986e+01
-1.451185804021293393e+02
-2.108330202067239725e+02
8.671680614382297847e+01
3.137490191428771027e+02
7.957557649030346170e+01
-1.210202917981048643e+02
-8.904048247422646511e+01
-1.830695042730541786e+02
-2.058361531861354763e+02
9.850671267955570443e+01
2.632934605362549974e+02
9.734695934436271614e+01
-9.779494907879442422e+00
-4.627042169120219484e+01
-1.555452255262612766e+02
-1.169041231234332940e+02
7.379734404603313180e+01
1.660466804620186281e+02
1.665608633092703883e+02
8.691951937801272265e+01
-1.012981849068793849e+02
-1.722600540036362986e+02
-1.124831403259593543e+02
-1.832531572094841863e+02
-1.976454525557783199e+02
9.087659500185515071e+01
2.741534723507730860e+02
9.480772910361271499e+01
-1.880067167989968979e+01
7.341319717066478745e+01
-2.668924082903391337e+01
-2.683180497475179891e+02
-1.562757979015373735e+02
2.232248495350991675e+02
3.005825773297027013e+02
7.734092717286746677e+01
-6.627639933279747986e+00
-2.555651155683893094e+01
-2.412142350521370133e+02
-3.638283215251912566e+02
-1.700230316983023897e+02
5.382939847268555411e+01
1.805298183898143236e+02
2.281935316901219437e+02
5.287212921371343555e+01
-9.503545794801750901e+01
8.315491438956257753e+01
1.183274617423788584e+02
-1.136136175006731861e+02
9.161402578372687344e+01
4.574754666071879114e+02
5.363942124562730385e+01
-5.507216074955424574e+02
-4.632513217514938333e+02
-2.977293646604406376e+02
-4.462458839051606105e+02
-2.001540539343633895e+02
3.714794700862375976e+02
5.686303393103294184e+02
5.323391794575061340e+02
5.104585292458048684e+02
3.648007045407339888e+02
3.139672938652486209e+02
2.385866226029509676e+02
-5.083428812518390600e+02
-1.384096549182084800e+03
-1.263675993418286680e+03
-6.233152775985191738e+02
-2.465551170325333317e+02
5.100976169044784569e+02
1.644433649229861658e+03
1.618259078287459033e+03
2.665474091502386500e+02
-6.719871213243583270e+02
-5.820537199891517730e+02
-4.305786660613267145e+02
-4.504905267731293748e+02
-1.208574426620531739e+02
2.341266309857118983e+02
5.595218963828322956e+01
-1.956212207627770283e+02
9.964057782685614484e+00
3.331490954078404911e+02
4.169249481937698647e+02
2.154794786047862374e+02
-3.623442209594196015e+02
-8.105342224715059274e+02
-3.545243410899765877e+02
4.074181648880996249e+02
4.166427234739152254e+02
1.915840766655080358e+02
4.203467362886050864e+02
3.332876169087837184e+02
-3.914129579111016142e+02
-6.701087588849565009e+02
-1.832159696212815732e+02
2.685576480261197929e+01
-4.411126104908736352e+02
-6.681806862074563469e+02
-2.201993116625878599e+01
7.746875745839055298e+02
8.575748480168622336e+02
5.868431248535632676e+02
5.782678263039802005e+02
4.599932976175851991e+02
-1.817354796259342322e+02
-8.347406983704406684e+02
-8.979480531109730919e+02
-5.851133488564760228e+02
-4.990097482801600108e+02
-5.943897742590276039e+02
-3.034282203415969548e+02
2.081202684820281092e+02
3.821464859276480865e+02
5.538149006078317598e+02
1.020834474676661443e+03
1.246122803831850661e+03
1.051939914556576014e+03
3.583574749411815219e+02
-1.170588985601649711e+03
-2.378123483931785358e+03
-1.723736110453551646e+03
2.982585453965305611e+00
1.412097843301656440e+03
2.068717065514256319e+03
1.283140051691562576e+03
-5.187232567289919416e+02
-1.562438164916583901e+03
-1.730574621832475032e+03
-1.117485757619640708e+03
1.091310114265230141e+03
2.359714968184384361e+03
-1.362366710514804140e+02
-2.598289558103965646e+03
-1.121615981571494785e+03
1.150635970621636488e+03
1.370669193560064969e+03
1.323305617313041694e+03
1.430968652288797557e+03
1.417942605184160527e+02
-1.851537789641368136e+03
-2.070431193488685039e+03
8.090294589663711804e+02
4.095559533131633088e+03
2.638389614068720675e+03
-2.717585091609208575e+03
-4.771208431164393005e+03
-2.327994186702812385e+03
-1.526763502641378409e+03
-2.433566561517781338e+03
5.903144260232965053e+02
4.756119786993290290e+03
2.776707932747085579e+03
-1.050705731184624483e+03
1.458678337515564863e+03
4.918866880274876166e+03
1.598492967772108386e+03
-2.824503257676468365e+03
-2.612873204082048687e+03
-1.440722696676029500e+03
-5.398474627259779481e+02
8.284868317987799173e+02
-4.067232268890580826e+02
-2.101378386699803286e+03
-9.620992856643183586e+02
-2.275042903740356451e+03
-4.431832812358896263e+03
1.573705927779217745e+03
7.507024759732786151e+03
1.585957374974281493e+03
-4.482642596925715225e+03
1.924995839845882415e+02
5.177017132001475147e+03
4.315007879267290264e+03
3.894501033467625348e+03
3.709375923117434468e+03
-1.112448809698803643e+03
-9.154027092008245745e+03
-1.339329003157988154e+04
-7.296694914217516271e+03
3.527801815013995110e+03
5.754851135380608866e+03
1.884563354313274885e+03
3.050487146220455543e+03
4.344883271836514723e+03
-9.421772530275288204e+01
-5.970844555881539009e+02
5.148135441769124554e+03
5.270901520029603489e+03
-2.033100808803137397e+03
-6.680265801962103978e+03
-5.290242104703357654e+03
-3.138048388947099738e+03
-2.442842354807709853e+03
4.666869449484360075e+02
4.529487853459552753e+03
3.290985648727502394e+03
5.466650147900696588e+00
1.872717234012888866e+03
2.661298173771519487e+03
-2.049561834862392971e+03
-3.487797991982155054e+03
-1.677970671700623143e+03
-3.016361979539779895e+03
-1.152199535035362715e+03
5.152270535277300951e+03
5.426364183961963136e+03
1.919994741710513154e+03
4.969442205271524813e+02
-4.040417078996394139e+03
-7.205052374297300048e+03
-1.263488443254370395e+03
2.936262701886866125e+03
8.283889887589532464e+02
2.929054581290982242e+03
4.223849734752964650e+03
-3.037791399608694974e+03
-5.884424066116057475e+03
1.055178503974852049e+02
2.078371343150029588e+03
4.255571185894588666e+02
2.246079748400824883e+03
2.600397577296394957e+03
-5.711607768729838881e+02
-2.084520879492809854e+03
-1.881162441319283744e+03
-1.031139077536644891e+03
6.859983154817563218e+02
6.255701047692210750e+02
-5.079600369687236707e+02
2.381484238942065303e+02
5.165797780698427459e+02
-6.764129473128546124e+02
-3.404109953901776748e+02
6.276920696550538423e+02
5.220507838913953265e+02
8.408450321592052887e+02
1.038263578664244960e+03
9.409033609017151889e+01
-4.090941149327554172e+02
-5.928434422197083222e+02
-1.275962138022160843e+03
-1.129612497397022707e+03
-1.660347644512264935e+02
4.711094675341547031e+02
6.612151758937361592e+02
-1.869794079128879787e+02
-1.220832183730131192e+03
-3.027410760567053671e+02
1.012850681023553420e+03
9.575296412000838018e+02
1.529514276954798106e+03
2.181142210537246228e+03
2.415737777717658048e+02
-2.077579563913041966e+03
-2.054845776893352649e+03
-1.245015896189703199e+03
-5.487792548157054853e+02
4.490101212240820132e+02
7.723984891443602692e+02
3.940612020910890578e+02
1.847585680874601053e+02
-1.146742442885198869e+02
-1.684091812708060729e+02
4.210896990973020024e+02
5.040952307914257062e+02
-3.224042180401498570e+01
-1.624844484768010773e+02
-1.428719134513590632e+02
-1.218812319625915848e+02
2.590567780963286282e+02
2.598341912088416734e+02
