-3.331840000000000000e+05
-3.313060000000000000e+05
-3.270960000000000000e+05
-3.269890000000000000e+05
-3.308130000000000000e+05
-3.329420000000000000e+05
-3.312170000000000000e+05
-3.272540000000000000e+05
-3.269430000000000000e+05
-3.306710000000000000e+05
-3.327900000000000000e+05
-3.311960000000000000e+05
-3.270990000000000000e+05
-3.267920000000000000e+05
-3.303620000000000000e+05
-3.327310000000000000e+05
-3.311020000000000000e+05
-3.270840000000000000e+05
-3.265080000000000000e+05
-3.303370000000000000e+05
-3.327550000000000000e+05
-3.310780000000000000e+05
-3.268730000000000000e+05
-3.262700000000000000e+05
-3.302680000000000000e+05
-3.326920000000000000e+05
-3.310070000000000000e+05
-3.268690000000000000e+05
-3.262930000000000000e+05
-3.298800000000000000e+05
-3.323500000000000000e+05
-3.310060000000000000e+05
-3.269940000000000000e+05
-3.261530000000000000e+05
-3.296140000000000000e+05
-3.316630000000000000e+05
-3.302190000000000000e+05
-3.261510000000000000e+05
-3.250520000000000000e+05
-3.286210000000000000e+05
-3.310620000000000000e+05
-3.297320000000000000e+05
-3.262470000000000000e+05
-3.262330000000000000e+05
-3.305890000000000000e+05
-3.331220000000000000e+05
-3.314090000000000000e+05
-3.271310000000000000e+05
-3.259320000000000000e+05
-3.292270000000000000e+05
-3.316090000000000000e+05
-3.302900000000000000e+05
-3.263110000000000000e+05
-3.252150000000000000e+05
-3.286620000000000000e+05
-3.314040000000000000e+05
-3.301930000000000000e+05
-3.262670000000000000e+05
-3.252040000000000000e+05
-3.286500000000000000e+05
-3.311870000000000000e+05
-3.299490000000000000e+05
-3.260850000000000000e+05
-3.248900000000000000e+05
-3.283080000000000000e+05
-3.310230000000000000e+05
-3.299160000000000000e+05
-3.260530000000000000e+05
-3.247580000000000000e+05
-3.282290000000000000e+05
-3.311130000000000000e+05
-3.299690000000000000e+05
-3.260670000000000000e+05
-3.245490000000000000e+05
-3.280180000000000000e+05
-3.306920000000000000e+05
-3.297400000000000000e+05
-3.259540000000000000e+05
-3.243920000000000000e+05
-3.277310000000000000e+05
-3.304290000000000000e+05
-3.296440000000000000e+05
-3.258390000000000000e+05
-3.244330000000000000e+05
-3.275980000000000000e+05
-3.304320000000000000e+05
-3.297550000000000000e+05
-3.258320000000000000e+05
-3.241030000000000000e+05
-3.273850000000000000e+05
-3.302360000000000000e+05
-3.294760000000000000e+05
-3.257340000000000000e+05
-3.238890000000000000e+05
-3.272480000000000000e+05
-3.303570000000000000e+05
-3.295560000000000000e+05
-3.255820000000000000e+05
-3.237390000000000000e+05
-3.271060000000000000e+05
-3.300060000000000000e+05
-3.292760000000000000e+05
-3.254230000000000000e+05
-3.236460000000000000e+05
-3.269370000000000000e+05
-3.300210000000000000e+05
-3.292210000000000000e+05
-3.254050000000000000e+05
-3.235530000000000000e+05
-3.268940000000000000e+05
-3.299640000000000000e+05
-3.294650000000000000e+05
-3.254810000000000000e+05
-3.234540000000000000e+05
-3.265920000000000000e+05
-3.298220000000000000e+05
-3.292740000000000000e+05
-3.255650000000000000e+05
-3.234370000000000000e+05
-3.264300000000000000e+05
-3.296840000000000000e+05
-3.291850000000000000e+05
-3.254790000000000000e+05
-3.234600000000000000e+05
-3.263910000000000000e+05
-3.296680000000000000e+05
-3.292910000000000000e+05
-3.255330000000000000e+05
-3.232840000000000000e+05
-3.262660000000000000e+05
-3.295730000000000000e+05
-3.292770000000000000e+05
-3.255740000000000000e+05
-3.230990000000000000e+05
-3.261450000000000000e+05
-3.293420000000000000e+05
-3.289540000000000000e+05
-3.255880000000000000e+05
-3.231770000000000000e+05
-3.260720000000000000e+05
-3.293220000000000000e+05
-3.289890000000000000e+05
-3.254840000000000000e+05
-3.231970000000000000e+05
-3.259070000000000000e+05
-3.292240000000000000e+05
-3.292100000000000000e+05
-3.255910000000000000e+05
-3.230600000000000000e+05
-3.257610000000000000e+05
-3.289260000000000000e+05
-3.288840000000000000e+05
-3.254710000000000000e+05
-3.230620000000000000e+05
-3.257280000000000000e+05
-3.290880000000000000e+05
-3.290430000000000000e+05
-3.255270000000000000e+05
-3.228460000000000000e+05
-3.255660000000000000e+05
-3.290510000000000000e+05
-3.289520000000000000e+05
-3.254240000000000000e+05
-3.229480000000000000e+05
-3.254750000000000000e+05
-3.289590000000000000e+05
-3.291410000000000000e+05
-3.256370000000000000e+05
-3.228200000000000000e+05
-3.255040000000000000e+05
-3.288610000000000000e+05
-3.290750000000000000e+05
-3.257170000000000000e+05
-3.227860000000000000e+05
-3.253540000000000000e+05
-3.289320000000000000e+05
-3.291000000000000000e+05
-3.257600000000000000e+05
-3.229270000000000000e+05
-3.254160000000000000e+05
-3.288310000000000000e+05
-3.290870000000000000e+05
-3.259540000000000000e+05
-3.228960000000000000e+05
-3.251760000000000000e+05
-3.287570000000000000e+05
-3.291890000000000000e+05
-3.258160000000000000e+05
-3.228450000000000000e+05
-3.253050000000000000e+05
-3.288760000000000000e+05
-3.291890000000000000e+05
-3.259620000000000000e+05
-3.227400000000000000e+05
-3.247870000000000000e+05
-3.280750000000000000e+05
-3.283070000000000000e+05
-3.250430000000000000e+05
-3.217820000000000000e+05
-3.243160000000000000e+05
-3.285070000000000000e+05
-3.296160000000000000e+05
-3.270560000000000000e+05
-3.240610000000000000e+05
-3.260090000000000000e+05
-3.293870000000000000e+05
-3.298340000000000000e+05
-3.264890000000000000e+05
-3.231380000000000000e+05
-3.250890000000000000e+05
-3.286330000000000000e+05
-3.294860000000000000e+05
-3.263610000000000000e+05
-3.229790000000000000e+05
-3.249010000000000000e+05
-3.287940000000000000e+05
-3.295120000000000000e+05
-3.263730000000000000e+05
-3.232010000000000000e+05
-3.251370000000000000e+05
-3.288040000000000000e+05
-3.295650000000000000e+05
-3.264610000000000000e+05
-3.231600000000000000e+05
-3.250630000000000000e+05
-3.288960000000000000e+05
-3.296810000000000000e+05
-3.266920000000000000e+05
-3.233620000000000000e+05
-3.250440000000000000e+05
-3.288170000000000000e+05
-3.296760000000000000e+05
-3.267110000000000000e+05
-3.232600000000000000e+05
-3.251290000000000000e+05
-3.287700000000000000e+05
-3.296180000000000000e+05
-3.270420000000000000e+05
-3.235410000000000000e+05
-3.251270000000000000e+05
-3.289300000000000000e+05
-3.298430000000000000e+05
-3.270220000000000000e+05
-3.235310000000000000e+05
-3.250310000000000000e+05
-3.288710000000000000e+05
-3.299480000000000000e+05
-3.270530000000000000e+05
-3.235330000000000000e+05
-3.249670000000000000e+05
-3.287190000000000000e+05
-3.298380000000000000e+05
-3.272870000000000000e+05
-3.237020000000000000e+05
-3.251210000000000000e+05
-3.289920000000000000e+05
-9.052700000000000000e+04
-9.586700000000000000e+04
-9.484000000000000000e+04
-8.854100000000000000e+04
-8.525100000000000000e+04
-9.096200000000000000e+04
-9.623600000000000000e+04
-9.368300000000000000e+04
-8.681400000000000000e+04
-8.573500000000000000e+04
-9.252200000000000000e+04
-9.788800000000000000e+04
-9.649200000000000000e+04
-8.962900000000000000e+04
-8.581500000000000000e+04
-9.154900000000000000e+04
-9.673600000000000000e+04
-9.477200000000000000e+04
-8.698400000000000000e+04
-8.178400000000000000e+04
-8.879600000000000000e+04
-9.752900000000000000e+04
-9.769100000000000000e+04
-9.054600000000000000e+04
-8.623200000000000000e+04
-9.124900000000000000e+04
-9.741400000000000000e+04
-9.789800000000000000e+04
-9.121100000000000000e+04
-8.655200000000000000e+04
-9.159900000000000000e+04
-9.758600000000000000e+04
-9.674700000000000000e+04
-9.045700000000000000e+04
-8.547600000000000000e+04
-9.016700000000000000e+04
-9.560300000000000000e+04
-9.492300000000000000e+04
-9.003100000000000000e+04
-8.718600000000000000e+04
-9.335600000000000000e+04
-9.781200000000000000e+04
-9.662200000000000000e+04
-9.061800000000000000e+04
-8.739700000000000000e+04
-9.254500000000000000e+04
-9.845100000000000000e+04
-9.833700000000000000e+04
-9.200800000000000000e+04
-8.674900000000000000e+04
-9.111900000000000000e+04
-9.715400000000000000e+04
-9.805000000000000000e+04
-9.242500000000000000e+04
-8.749500000000000000e+04
-9.154900000000000000e+04
-9.635400000000000000e+04
-9.607900000000000000e+04
-9.015900000000000000e+04
-8.559700000000000000e+04
-9.120300000000000000e+04
-9.630200000000000000e+04
-9.621900000000000000e+04
-9.324100000000000000e+04
-8.884300000000000000e+04
-9.254700000000000000e+04
-9.856400000000000000e+04
-9.852600000000000000e+04
-9.254900000000000000e+04
-8.728200000000000000e+04
-9.098700000000000000e+04
-9.676900000000000000e+04
-9.630700000000000000e+04
-9.007400000000000000e+04
-8.744200000000000000e+04
-9.253600000000000000e+04
-9.818400000000000000e+04
-9.839600000000000000e+04
-9.268700000000000000e+04
-8.719400000000000000e+04
-9.108100000000000000e+04
-9.743700000000000000e+04
-9.817700000000000000e+04
-9.258100000000000000e+04
-8.636100000000000000e+04
-8.980300000000000000e+04
-9.740900000000000000e+04
-9.856900000000000000e+04
-9.294100000000000000e+04
-8.742600000000000000e+04
-9.082800000000000000e+04
-9.703100000000000000e+04
-9.796200000000000000e+04
-9.258900000000000000e+04
-8.708600000000000000e+04
-9.050400000000000000e+04
-9.705600000000000000e+04
-9.818400000000000000e+04
-9.293800000000000000e+04
-8.711700000000000000e+04
-9.042900000000000000e+04
-9.688700000000000000e+04
-9.804600000000000000e+04
-9.315600000000000000e+04
-8.748500000000000000e+04
-9.055800000000000000e+04
-9.690900000000000000e+04
-9.831100000000000000e+04
-9.308900000000000000e+04
-8.735300000000000000e+04
-9.081200000000000000e+04
-9.735200000000000000e+04
-9.874000000000000000e+04
-9.369500000000000000e+04
-8.791700000000000000e+04
-9.071600000000000000e+04
-9.716900000000000000e+04
-9.889100000000000000e+04
-9.406600000000000000e+04
-8.829600000000000000e+04
-9.094200000000000000e+04
-9.747300000000000000e+04
-9.914600000000000000e+04
-9.419400000000000000e+04
-8.815900000000000000e+04
-9.069000000000000000e+04
-9.723800000000000000e+04
-9.897500000000000000e+04
-9.416400000000000000e+04
-8.800900000000000000e+04
-9.034100000000000000e+04
-9.686100000000000000e+04
-9.875400000000000000e+04
-9.451400000000000000e+04
-8.838300000000000000e+04
-9.040100000000000000e+04
-9.649900000000000000e+04
-9.827400000000000000e+04
-9.354000000000000000e+04
-8.733000000000000000e+04
-8.938000000000000000e+04
-9.603200000000000000e+04
-9.854400000000000000e+04
-9.470600000000000000e+04
-8.894600000000000000e+04
-9.031700000000000000e+04
-9.633700000000000000e+04
-9.887600000000000000e+04
-9.506300000000000000e+04
-8.862300000000000000e+04
-9.024200000000000000e+04
-9.645200000000000000e+04
-9.843200000000000000e+04
-9.395900000000000000e+04
-8.802900000000000000e+04
-8.948100000000000000e+04
-9.546900000000000000e+04
-9.779100000000000000e+04
-9.352200000000000000e+04
-8.741600000000000000e+04
-8.972800000000000000e+04
-9.641200000000000000e+04
-9.868000000000000000e+04
-9.450100000000000000e+04
-8.807600000000000000e+04
-8.921100000000000000e+04
-9.569600000000000000e+04
-9.834500000000000000e+04
-9.450000000000000000e+04
-8.821600000000000000e+04
-8.927800000000000000e+04
-9.572800000000000000e+04
-9.840200000000000000e+04
-9.444200000000000000e+04
-8.806400000000000000e+04
-8.903100000000000000e+04
-9.552700000000000000e+04
-9.830300000000000000e+04
-9.442300000000000000e+04
-8.803200000000000000e+04
-8.881000000000000000e+04
-9.499600000000000000e+04
-9.759100000000000000e+04
-9.335900000000000000e+04
-8.762500000000000000e+04
-8.945700000000000000e+04
-9.560700000000000000e+04
-9.860100000000000000e+04
-9.475200000000000000e+04
-8.830100000000000000e+04
-8.870800000000000000e+04
-9.512600000000000000e+04
-9.811900000000000000e+04
-9.465900000000000000e+04
-8.827500000000000000e+04
-8.866500000000000000e+04
-9.503900000000000000e+04
-9.813900000000000000e+04
-9.473300000000000000e+04
-8.833200000000000000e+04
-8.840600000000000000e+04
-9.465100000000000000e+04
-9.811300000000000000e+04
-9.497700000000000000e+04
-8.839900000000000000e+04
-8.824200000000000000e+04
-9.469800000000000000e+04
-9.820100000000000000e+04
-9.488900000000000000e+04
-8.823900000000000000e+04
-8.803600000000000000e+04
-9.449400000000000000e+04
-9.778000000000000000e+04
-9.412400000000000000e+04
-8.777000000000000000e+04
-8.797600000000000000e+04
-9.470700000000000000e+04
-9.815700000000000000e+04
-9.494600000000000000e+04
-8.828500000000000000e+04
-8.803100000000000000e+04
-9.434800000000000000e+04
-9.808100000000000000e+04
-9.517600000000000000e+04
-8.846900000000000000e+04
-8.769800000000000000e+04
-9.404900000000000000e+04
-9.778200000000000000e+04
-9.494900000000000000e+04
-8.837200000000000000e+04
-8.750100000000000000e+04
-9.377900000000000000e+04
-9.785600000000000000e+04
-9.510000000000000000e+04
-8.846000000000000000e+04
-8.754800000000000000e+04
-9.374100000000000000e+04
-9.773100000000000000e+04
-9.502600000000000000e+04
-8.841100000000000000e+04
-8.730400000000000000e+04
-9.339400000000000000e+04
-9.716900000000000000e+04
-9.436500000000000000e+04
-8.740800000000000000e+04
-8.641400000000000000e+04
-9.368900000000000000e+04
-9.765000000000000000e+04
-9.500000000000000000e+04
-8.873200000000000000e+04
-8.733800000000000000e+04
-9.345200000000000000e+04
-9.763100000000000000e+04
-9.528900000000000000e+04
-8.880100000000000000e+04
-8.704800000000000000e+04
-9.292400000000000000e+04
-9.737400000000000000e+04
-9.535300000000000000e+04
-8.858400000000000000e+04
-8.667100000000000000e+04
-9.278700000000000000e+04
-9.738900000000000000e+04
-9.525900000000000000e+04
-8.855800000000000000e+04
-8.638100000000000000e+04
-9.208000000000000000e+04
-9.670200000000000000e+04
-9.463700000000000000e+04
-8.807200000000000000e+04
-8.632100000000000000e+04
-9.287100000000000000e+04
-9.701700000000000000e+04
-9.495100000000000000e+04
-8.868600000000000000e+04
-8.675500000000000000e+04
-9.245200000000000000e+04
-9.696900000000000000e+04
-9.517800000000000000e+04
-8.873000000000000000e+04
-8.596200000000000000e+04
-9.167200000000000000e+04
-9.679800000000000000e+04
-9.519400000000000000e+04
-8.917400000000000000e+04
-8.658900000000000000e+04
-9.190000000000000000e+04
-9.642100000000000000e+04
-9.517800000000000000e+04
-8.922400000000000000e+04
-8.642200000000000000e+04
-9.216700000000000000e+04
-9.715700000000000000e+04
-9.548600000000000000e+04
-8.874400000000000000e+04
-8.582300000000000000e+04
-9.102200000000000000e+04
-9.606000000000000000e+04
-9.469200000000000000e+04
-8.817100000000000000e+04
-8.549400000000000000e+04
-9.128100000000000000e+04
-9.698900000000000000e+04
-9.645900000000000000e+04
-9.021900000000000000e+04
-8.702700000000000000e+04
-9.222400000000000000e+04
-9.708600000000000000e+04
-9.566200000000000000e+04
-8.935100000000000000e+04
-8.599200000000000000e+04
-9.133400000000000000e+04
-9.647900000000000000e+04
-9.558400000000000000e+04
-8.931100000000000000e+04
-8.591400000000000000e+04
-9.118700000000000000e+04
-9.647500000000000000e+04
-9.551900000000000000e+04
-8.912400000000000000e+04
-8.568000000000000000e+04
-9.090300000000000000e+04
-9.626300000000000000e+04
-9.558400000000000000e+04
-8.951900000000000000e+04
-8.581800000000000000e+04
-9.081000000000000000e+04
-9.634600000000000000e+04
-9.569400000000000000e+04
-8.952400000000000000e+04
-8.578800000000000000e+04
-9.072600000000000000e+04
-9.628900000000000000e+04
-9.572300000000000000e+04
-8.963900000000000000e+04
-8.566400000000000000e+04
-9.061700000000000000e+04
-9.637600000000000000e+04
-9.578200000000000000e+04
-8.976400000000000000e+04
-8.583300000000000000e+04
-9.030000000000000000e+04
-9.632700000000000000e+04
-9.611200000000000000e+04
-9.001600000000000000e+04
-8.580100000000000000e+04
-9.039900000000000000e+04
-9.604700000000000000e+04
-9.594400000000000000e+04
-8.999700000000000000e+04
-8.538900000000000000e+04
-8.992600000000000000e+04
-9.589900000000000000e+04
-9.579500000000000000e+04
-8.986900000000000000e+04
-8.547400000000000000e+04
-8.993900000000000000e+04
-9.579900000000000000e+04
-9.579600000000000000e+04
-8.990700000000000000e+04
-8.543600000000000000e+04
-8.971700000000000000e+04
-9.559700000000000000e+04
-9.573600000000000000e+04
-9.005600000000000000e+04
-8.530300000000000000e+04
-8.958100000000000000e+04
-9.558600000000000000e+04
-9.579100000000000000e+04
-9.021400000000000000e+04
-8.551600000000000000e+04
-8.973000000000000000e+04
-9.567700000000000000e+04
-9.585600000000000000e+04
-9.034600000000000000e+04
-8.530100000000000000e+04
-8.910900000000000000e+04
-9.522600000000000000e+04
-9.599100000000000000e+04
-9.016200000000000000e+04
-8.518100000000000000e+04
-8.927400000000000000e+04
-9.564200000000000000e+04
-9.591600000000000000e+04
-9.028400000000000000e+04
-8.531400000000000000e+04
-8.945800000000000000e+04
-9.542100000000000000e+04
-9.615600000000000000e+04
-9.081300000000000000e+04
-8.559700000000000000e+04
-8.886700000000000000e+04
-9.494700000000000000e+04
-9.601100000000000000e+04
-9.087600000000000000e+04
-8.556100000000000000e+04
-8.886900000000000000e+04
-9.505900000000000000e+04
-9.591500000000000000e+04
-9.066100000000000000e+04
-8.537400000000000000e+04
-8.899100000000000000e+04
-9.532300000000000000e+04
-9.628300000000000000e+04
-9.098400000000000000e+04
-8.548600000000000000e+04
-8.857900000000000000e+04
-9.479600000000000000e+04
-9.609900000000000000e+04
-9.104400000000000000e+04
-8.545400000000000000e+04
-8.851500000000000000e+04
-9.479200000000000000e+04
-9.598100000000000000e+04
-9.100700000000000000e+04
-8.525300000000000000e+04
-8.776600000000000000e+04
-9.456400000000000000e+04
-9.636200000000000000e+04
-9.127100000000000000e+04
-8.524400000000000000e+04
-8.810900000000000000e+04
-9.470800000000000000e+04
-9.637200000000000000e+04
-9.139900000000000000e+04
-8.568300000000000000e+04
-8.808100000000000000e+04
-9.455200000000000000e+04
-9.633300000000000000e+04
-9.148400000000000000e+04
-8.561000000000000000e+04
-8.801700000000000000e+04
-9.448100000000000000e+04
-9.619400000000000000e+04
-9.153600000000000000e+04
-8.575800000000000000e+04
-8.810500000000000000e+04
-9.460900000000000000e+04
-9.643100000000000000e+04
-9.172000000000000000e+04
-8.569400000000000000e+04
-8.794100000000000000e+04
-9.439000000000000000e+04
-9.629600000000000000e+04
-9.176300000000000000e+04
-8.576600000000000000e+04
-8.780000000000000000e+04
-9.429000000000000000e+04
-9.629800000000000000e+04
-9.179100000000000000e+04
-8.580200000000000000e+04
-8.780200000000000000e+04
-9.416700000000000000e+04
-9.613600000000000000e+04
-9.140400000000000000e+04
-8.503600000000000000e+04
-8.669800000000000000e+04
-9.316700000000000000e+04
-9.565200000000000000e+04
-9.187700000000000000e+04
-8.636300000000000000e+04
-8.848200000000000000e+04
-9.513100000000000000e+04
-9.737900000000000000e+04
-9.290400000000000000e+04
-8.636600000000000000e+04
-8.773800000000000000e+04
-9.421300000000000000e+04
-9.664100000000000000e+04
-9.251400000000000000e+04
-8.628400000000000000e+04
-8.750200000000000000e+04
-9.397400000000000000e+04
-9.655100000000000000e+04
-9.256100000000000000e+04
-8.627700000000000000e+04
-8.726000000000000000e+04
-9.394500000000000000e+04
-9.675400000000000000e+04
-9.272800000000000000e+04
-8.618400000000000000e+04
-8.707400000000000000e+04
-9.375900000000000000e+04
-9.668600000000000000e+04
-9.284200000000000000e+04
-8.655600000000000000e+04
-8.729900000000000000e+04
-9.369800000000000000e+04
-9.654500000000000000e+04
-9.287600000000000000e+04
-8.659800000000000000e+04
-8.698700000000000000e+04
-9.343700000000000000e+04
-9.668200000000000000e+04
-9.309300000000000000e+04
-8.666800000000000000e+04
-8.712300000000000000e+04
-9.359400000000000000e+04
-9.669200000000000000e+04
-9.303100000000000000e+04
-8.645700000000000000e+04
-8.704100000000000000e+04
-9.348600000000000000e+04
-9.658700000000000000e+04
-9.315100000000000000e+04
-8.664600000000000000e+04
-8.676400000000000000e+04
-9.338500000000000000e+04
-9.679600000000000000e+04
-9.330300000000000000e+04
-8.676700000000000000e+04
-8.688000000000000000e+04
-9.324200000000000000e+04
-9.663400000000000000e+04
-9.329800000000000000e+04
-8.673900000000000000e+04
-8.668900000000000000e+04
-9.300700000000000000e+04
-9.652800000000000000e+04
-9.348100000000000000e+04
-8.696500000000000000e+04
-8.661600000000000000e+04
-9.296600000000000000e+04
-9.647900000000000000e+04
-9.360200000000000000e+04
-8.720400000000000000e+04
-8.664500000000000000e+04
-9.311500000000000000e+04
-9.683700000000000000e+04
-9.388300000000000000e+04
-8.731100000000000000e+04
-8.656700000000000000e+04
-9.300600000000000000e+04
-9.686300000000000000e+04
-9.394900000000000000e+04
-8.734200000000000000e+04
-8.643100000000000000e+04
-9.263400000000000000e+04
-9.666300000000000000e+04
-9.397100000000000000e+04
-8.756700000000000000e+04
-8.677700000000000000e+04
-9.287700000000000000e+04
-9.679200000000000000e+04
-9.426100000000000000e+04
-8.768600000000000000e+04
-8.646800000000000000e+04
-9.250400000000000000e+04
-9.670900000000000000e+04
-9.433900000000000000e+04
-8.773700000000000000e+04
-8.629100000000000000e+04
-9.254600000000000000e+04
-9.680400000000000000e+04
-9.434500000000000000e+04
-8.766200000000000000e+04
-8.637400000000000000e+04
-9.245600000000000000e+04
-9.660700000000000000e+04
-9.441600000000000000e+04
-8.790700000000000000e+04
-8.630700000000000000e+04
-9.236100000000000000e+04
-9.676900000000000000e+04
-9.467600000000000000e+04
-8.807300000000000000e+04
-8.617800000000000000e+04
-9.220300000000000000e+04
-9.668700000000000000e+04
-9.458600000000000000e+04
-8.812000000000000000e+04
-8.606000000000000000e+04
-9.202700000000000000e+04
-9.656500000000000000e+04
-9.478100000000000000e+04
-8.835700000000000000e+04
-8.619400000000000000e+04
-9.209100000000000000e+04
-9.675300000000000000e+04
-9.490500000000000000e+04
-8.845400000000000000e+04
-8.615800000000000000e+04
-9.173400000000000000e+04
-9.635700000000000000e+04
-9.485900000000000000e+04
-8.861500000000000000e+04
-8.625200000000000000e+04
-9.196200000000000000e+04
-9.679100000000000000e+04
-9.517400000000000000e+04
-8.872600000000000000e+04
-8.615200000000000000e+04
-9.189600000000000000e+04
-9.668900000000000000e+04
-9.527000000000000000e+04
-8.888100000000000000e+04
-8.626900000000000000e+04
-9.192200000000000000e+04
-9.690500000000000000e+04
-9.544800000000000000e+04
-8.895400000000000000e+04
-8.621000000000000000e+04
-9.185200000000000000e+04
-9.684100000000000000e+04
-9.538800000000000000e+04
-8.907800000000000000e+04
-8.622700000000000000e+04
-9.170400000000000000e+04
-9.681900000000000000e+04
-9.556500000000000000e+04
-8.933100000000000000e+04
-8.618600000000000000e+04
-9.130200000000000000e+04
-9.624200000000000000e+04
-9.509200000000000000e+04
-8.859200000000000000e+04
-8.534600000000000000e+04
-9.087200000000000000e+04
-9.670700000000000000e+04
-9.654600000000000000e+04
-9.070400000000000000e+04
-8.723600000000000000e+04
-9.218200000000000000e+04
-9.736900000000000000e+04
-9.636900000000000000e+04
-9.006600000000000000e+04
-8.629800000000000000e+04
-9.150100000000000000e+04
-9.678700000000000000e+04
-9.601000000000000000e+04
-8.993500000000000000e+04
-8.623800000000000000e+04
-9.116200000000000000e+04
-9.697400000000000000e+04
-9.641200000000000000e+04
-9.030600000000000000e+04
-8.650100000000000000e+04
-9.135400000000000000e+04
-9.692200000000000000e+04
-9.649600000000000000e+04
-9.034100000000000000e+04
-8.641100000000000000e+04
-9.134200000000000000e+04
-9.690600000000000000e+04
-9.659800000000000000e+04
-9.059300000000000000e+04
-8.631400000000000000e+04
-9.105400000000000000e+04
-9.668100000000000000e+04
-9.652500000000000000e+04
-9.078100000000000000e+04
-8.653300000000000000e+04
-9.118900000000000000e+04
-9.692000000000000000e+04
-9.669100000000000000e+04
-9.075400000000000000e+04
-8.672800000000000000e+04
-9.122900000000000000e+04
-9.691300000000000000e+04
-9.686400000000000000e+04
-9.110900000000000000e+04
-8.672600000000000000e+04
-9.107700000000000000e+04
-9.696700000000000000e+04
-9.700100000000000000e+04
-9.129700000000000000e+04
-8.692200000000000000e+04
-9.120600000000000000e+04
-9.688100000000000000e+04
-9.685100000000000000e+04
-9.137200000000000000e+04
-8.695500000000000000e+04
-9.116100000000000000e+04
-9.694100000000000000e+04
-9.722400000000000000e+04
-9.163900000000000000e+04
-8.673100000000000000e+04
-9.080700000000000000e+04
-9.684800000000000000e+04
-9.727800000000000000e+04
-9.185700000000000000e+04
-8.692700000000000000e+04
-9.087000000000000000e+04
-9.688000000000000000e+04
-9.738800000000000000e+04
-9.203200000000000000e+04
-8.698000000000000000e+04
-9.078000000000000000e+04
-9.690200000000000000e+04
-9.741300000000000000e+04
-9.179100000000000000e+04
-8.703500000000000000e+04
-9.078400000000000000e+04
-9.683800000000000000e+04
-9.762600000000000000e+04
-9.237300000000000000e+04
-8.710600000000000000e+04
-9.053100000000000000e+04
-9.692200000000000000e+04
-9.773100000000000000e+04
-9.238100000000000000e+04
-8.720000000000000000e+04
-9.062700000000000000e+04
-9.681400000000000000e+04
-9.788200000000000000e+04
-9.260800000000000000e+04
-8.713400000000000000e+04
-9.057900000000000000e+04
-9.678600000000000000e+04
-9.793600000000000000e+04
-9.265300000000000000e+04
-8.701900000000000000e+04
-9.018400000000000000e+04
-9.687600000000000000e+04
-9.805400000000000000e+04
-9.286900000000000000e+04
-8.737600000000000000e+04
-9.039200000000000000e+04
-9.664200000000000000e+04
-9.812200000000000000e+04
-9.320100000000000000e+04
-8.753400000000000000e+04
-9.035900000000000000e+04
-9.678400000000000000e+04
-9.815300000000000000e+04
-9.335600000000000000e+04
-8.770300000000000000e+04
-9.017200000000000000e+04
-9.658100000000000000e+04
-9.846200000000000000e+04
-9.358300000000000000e+04
-8.762000000000000000e+04
-9.020200000000000000e+04
-9.646700000000000000e+04
-9.832200000000000000e+04
-9.375400000000000000e+04
-8.781300000000000000e+04
-9.023000000000000000e+04
-9.653700000000000000e+04
-9.827700000000000000e+04
-9.371100000000000000e+04
-8.779100000000000000e+04
-9.005600000000000000e+04
-9.653200000000000000e+04
-9.830600000000000000e+04
-9.367900000000000000e+04
-8.781600000000000000e+04
-8.999200000000000000e+04
-9.634700000000000000e+04
-9.834400000000000000e+04
-9.408900000000000000e+04
-8.801400000000000000e+04
-9.002800000000000000e+04
-9.654200000000000000e+04
-9.867400000000000000e+04
-9.432400000000000000e+04
-8.821500000000000000e+04
-8.995600000000000000e+04
-9.634500000000000000e+04
-9.863800000000000000e+04
-9.453300000000000000e+04
-8.839100000000000000e+04
-8.994400000000000000e+04
-9.633400000000000000e+04
-9.872700000000000000e+04
-9.466200000000000000e+04
-8.844200000000000000e+04
-8.992100000000000000e+04
-9.633700000000000000e+04
-9.875400000000000000e+04
-9.453700000000000000e+04
-8.804900000000000000e+04
-8.918700000000000000e+04
-9.558800000000000000e+04
-9.792200000000000000e+04
-9.395800000000000000e+04
-8.788500000000000000e+04
-8.948200000000000000e+04
-9.678000000000000000e+04
-9.986900000000000000e+04
-9.589400000000000000e+04
-8.934100000000000000e+04
-9.027400000000000000e+04
-9.654400000000000000e+04
-9.905800000000000000e+04
-9.523100000000000000e+04
-8.868000000000000000e+04
-8.964500000000000000e+04
-9.612100000000000000e+04
-9.892200000000000000e+04
-9.520100000000000000e+04
-8.869600000000000000e+04
-8.932800000000000000e+04
-9.589300000000000000e+04
-9.902400000000000000e+04
-9.534800000000000000e+04
-8.893700000000000000e+04
-8.952400000000000000e+04
-9.595000000000000000e+04
-9.899200000000000000e+04
-9.560700000000000000e+04
-8.905000000000000000e+04
-8.934700000000000000e+04
-9.589200000000000000e+04
-9.904900000000000000e+04
-9.562500000000000000e+04
-8.913200000000000000e+04
-8.931800000000000000e+04
-9.568700000000000000e+04
-9.891100000000000000e+04
-9.560900000000000000e+04
-8.911600000000000000e+04
-8.914100000000000000e+04
-9.567900000000000000e+04
-9.896900000000000000e+04
-9.579200000000000000e+04
-8.931100000000000000e+04
-8.918200000000000000e+04
-9.545200000000000000e+04
-9.868300000000000000e+04
-9.582700000000000000e+04
-8.940300000000000000e+04
-8.898600000000000000e+04
-9.535900000000000000e+04
-9.897900000000000000e+04
-9.588000000000000000e+04
-8.933600000000000000e+04
-8.881300000000000000e+04
-9.517600000000000000e+04
-9.875700000000000000e+04
-9.584600000000000000e+04
-8.928200000000000000e+04
-8.870200000000000000e+04
-9.514400000000000000e+04
-9.875600000000000000e+04
-9.577900000000000000e+04
-8.931400000000000000e+04
-8.859300000000000000e+04
-9.484200000000000000e+04
-9.870700000000000000e+04
-9.602800000000000000e+04
-8.933300000000000000e+04
-8.852000000000000000e+04
-9.491900000000000000e+04
-9.872700000000000000e+04
-9.598900000000000000e+04
-8.952800000000000000e+04
-8.861200000000000000e+04
-9.467700000000000000e+04
-9.866700000000000000e+04
-9.607900000000000000e+04
-8.967600000000000000e+04
-8.852800000000000000e+04
-9.457900000000000000e+04
-9.870900000000000000e+04
-9.642300000000000000e+04
-8.987300000000000000e+04
-8.838100000000000000e+04
-9.452300000000000000e+04
-9.889600000000000000e+04
-9.649700000000000000e+04
-8.981900000000000000e+04
-8.823400000000000000e+04
-9.451500000000000000e+04
-9.879600000000000000e+04
-9.664100000000000000e+04
-9.018300000000000000e+04
-8.835400000000000000e+04
-9.425700000000000000e+04
-9.856200000000000000e+04
-9.659200000000000000e+04
-9.008500000000000000e+04
-8.800300000000000000e+04
-9.407200000000000000e+04
-9.883700000000000000e+04
-9.683000000000000000e+04
-9.024100000000000000e+04
-8.810200000000000000e+04
-9.398500000000000000e+04
-9.847600000000000000e+04
-9.669100000000000000e+04
-9.047300000000000000e+04
-8.827300000000000000e+04
-9.408100000000000000e+04
-9.866100000000000000e+04
-9.695600000000000000e+04
-9.041800000000000000e+04
-8.802000000000000000e+04
-9.376200000000000000e+04
-9.852100000000000000e+04
-9.695700000000000000e+04
-9.056200000000000000e+04
-8.793600000000000000e+04
-9.369000000000000000e+04
-9.847600000000000000e+04
-9.685900000000000000e+04
-9.059100000000000000e+04
-8.804500000000000000e+04
-9.386100000000000000e+04
-9.867000000000000000e+04
-9.707700000000000000e+04
-9.091200000000000000e+04
-8.802300000000000000e+04
-9.351200000000000000e+04
-9.848100000000000000e+04
-9.724400000000000000e+04
-9.104200000000000000e+04
-8.804000000000000000e+04
-9.348100000000000000e+04
-9.845200000000000000e+04
-9.719600000000000000e+04
-9.080800000000000000e+04
-8.787900000000000000e+04
-9.329400000000000000e+04
-9.849600000000000000e+04
-9.738100000000000000e+04
-9.104900000000000000e+04
-8.758400000000000000e+04
-9.317500000000000000e+04
-9.834700000000000000e+04
-9.749800000000000000e+04
-9.143200000000000000e+04
-8.808000000000000000e+04
-9.330200000000000000e+04
-9.852700000000000000e+04
-9.766900000000000000e+04
-9.146500000000000000e+04
-8.757200000000000000e+04
-9.242100000000000000e+04
-9.778900000000000000e+04
-9.683800000000000000e+04
-9.047100000000000000e+04
-8.656000000000000000e+04
-9.175900000000000000e+04
-9.761700000000000000e+04
-9.772800000000000000e+04
-9.213900000000000000e+04
-8.832100000000000000e+04
-9.333700000000000000e+04
-9.867600000000000000e+04
-9.778200000000000000e+04
-9.142200000000000000e+04
-8.767000000000000000e+04
-9.229400000000000000e+04
-9.767600000000000000e+04
-9.747700000000000000e+04
-9.159600000000000000e+04
-8.747600000000000000e+04
-9.210700000000000000e+04
-9.767000000000000000e+04
-9.732900000000000000e+04
-9.141900000000000000e+04
-8.714500000000000000e+04
-9.165500000000000000e+04
-9.700600000000000000e+04
-9.668600000000000000e+04
-9.132300000000000000e+04
-8.695200000000000000e+04
-9.137700000000000000e+04
-9.707100000000000000e+04
-9.713300000000000000e+04
-9.132600000000000000e+04
-8.681200000000000000e+04
-9.109000000000000000e+04
-9.681100000000000000e+04
-9.673900000000000000e+04
-9.115400000000000000e+04
-8.660400000000000000e+04
-9.093300000000000000e+04
-9.663900000000000000e+04
-9.675000000000000000e+04
-9.112700000000000000e+04
-8.627600000000000000e+04
-9.050100000000000000e+04
-9.644700000000000000e+04
-9.667200000000000000e+04
-9.087900000000000000e+04
-8.628800000000000000e+04
-9.040800000000000000e+04
-9.626000000000000000e+04
-9.641200000000000000e+04
-9.098000000000000000e+04
-8.605800000000000000e+04
-8.991400000000000000e+04
-9.604200000000000000e+04
-9.667700000000000000e+04
-9.120400000000000000e+04
-8.614300000000000000e+04
-8.980700000000000000e+04
-9.586400000000000000e+04
-9.659600000000000000e+04
-9.138200000000000000e+04
-8.633400000000000000e+04
-8.989500000000000000e+04
-9.600600000000000000e+04
-9.673100000000000000e+04
-9.137100000000000000e+04
-8.635600000000000000e+04
-8.991900000000000000e+04
-9.602500000000000000e+04
-9.687400000000000000e+04
-9.161100000000000000e+04
-8.619100000000000000e+04
-8.986800000000000000e+04
-9.619500000000000000e+04
-9.700600000000000000e+04
-9.182700000000000000e+04
-8.649000000000000000e+04
-8.980600000000000000e+04
-9.611400000000000000e+04
-9.732200000000000000e+04
-9.222700000000000000e+04
-8.679400000000000000e+04
-8.981300000000000000e+04
-9.604000000000000000e+04
-9.724000000000000000e+04
-9.220300000000000000e+04
-8.677100000000000000e+04
-8.975100000000000000e+04
-9.602400000000000000e+04
-9.732400000000000000e+04
-9.258900000000000000e+04
-8.711900000000000000e+04
-8.983100000000000000e+04
-9.613900000000000000e+04
-9.770900000000000000e+04
-9.278400000000000000e+04
-8.697500000000000000e+04
-8.991100000000000000e+04
-9.616000000000000000e+04
-9.767300000000000000e+04
-9.305800000000000000e+04
-8.728300000000000000e+04
-8.981100000000000000e+04
-9.626100000000000000e+04
-9.791300000000000000e+04
-9.318400000000000000e+04
-8.745400000000000000e+04
-8.978500000000000000e+04
-9.609300000000000000e+04
-9.783700000000000000e+04
-9.323200000000000000e+04
-8.733700000000000000e+04
-8.954800000000000000e+04
-9.599100000000000000e+04
-9.799100000000000000e+04
-9.342700000000000000e+04
-8.739700000000000000e+04
-8.947500000000000000e+04
-9.583100000000000000e+04
-9.808200000000000000e+04
-9.362400000000000000e+04
-8.751200000000000000e+04
-8.915800000000000000e+04
-9.563700000000000000e+04
-9.821500000000000000e+04
-9.401600000000000000e+04
-8.787100000000000000e+04
-8.947800000000000000e+04
-9.602000000000000000e+04
-9.821900000000000000e+04
-9.386100000000000000e+04
-8.781300000000000000e+04
-8.925500000000000000e+04
-9.579100000000000000e+04
-9.831400000000000000e+04
-9.401100000000000000e+04
-8.787400000000000000e+04
-8.940300000000000000e+04
-9.588200000000000000e+04
-9.819000000000000000e+04
-9.404100000000000000e+04
-8.790100000000000000e+04
-8.908700000000000000e+04
-9.538200000000000000e+04
-9.810800000000000000e+04
-9.426100000000000000e+04
-8.794700000000000000e+04
-8.918700000000000000e+04
-9.558200000000000000e+04
-9.824700000000000000e+04
-9.440200000000000000e+04
-8.817200000000000000e+04
-8.903800000000000000e+04
-9.532900000000000000e+04
-9.809000000000000000e+04
-9.404200000000000000e+04
-8.749100000000000000e+04
-8.806600000000000000e+04
-9.442100000000000000e+04
-9.724100000000000000e+04
-9.373400000000000000e+04
-8.794400000000000000e+04
-8.944200000000000000e+04
-9.636200000000000000e+04
-9.932600000000000000e+04
-9.550700000000000000e+04
-8.884700000000000000e+04
-8.916200000000000000e+04
-9.532200000000000000e+04
-9.826700000000000000e+04
-9.483400000000000000e+04
-8.845500000000000000e+04
-8.868800000000000000e+04
-9.503700000000000000e+04
-9.841200000000000000e+04
-9.500500000000000000e+04
-8.854600000000000000e+04
-8.875100000000000000e+04
-9.520100000000000000e+04
-9.840700000000000000e+04
-9.517200000000000000e+04
-8.884400000000000000e+04
-8.872600000000000000e+04
-9.514900000000000000e+04
-9.860300000000000000e+04
-9.534900000000000000e+04
-8.868600000000000000e+04
-8.855600000000000000e+04
-9.502000000000000000e+04
-9.834500000000000000e+04
-9.513400000000000000e+04
-8.851700000000000000e+04
-8.806100000000000000e+04
-9.419000000000000000e+04
-9.764700000000000000e+04
-9.490200000000000000e+04
-8.915400000000000000e+04
-8.880600000000000000e+04
-9.495900000000000000e+04
-9.866500000000000000e+04
-9.574700000000000000e+04
-8.915100000000000000e+04
-8.834900000000000000e+04
-9.459600000000000000e+04
-9.832200000000000000e+04
-9.564700000000000000e+04
-8.905100000000000000e+04
-8.824700000000000000e+04
-9.460300000000000000e+04
-9.843600000000000000e+04
-9.542600000000000000e+04
-8.755700000000000000e+04
-8.373900000000000000e+04
-8.690500000000000000e+04
-9.032900000000000000e+04
-9.007000000000000000e+04
-8.354000000000000000e+04
-8.234100000000000000e+04
-8.585000000000000000e+04
-8.984400000000000000e+04
-8.422800000000000000e+04
-7.362700000000000000e+04
-7.810400000000000000e+04
-9.708900000000000000e+04
-1.024710000000000000e+05
-9.457900000000000000e+04
-8.693300000000000000e+04
-8.657400000000000000e+04
-8.941400000000000000e+04
-9.189300000000000000e+04
-9.176900000000000000e+04
-8.900000000000000000e+04
-8.754500000000000000e+04
-9.022200000000000000e+04
-9.347200000000000000e+04
-9.291100000000000000e+04
-8.820400000000000000e+04
-8.493200000000000000e+04
-8.497900000000000000e+04
-9.158900000000000000e+04
-9.439400000000000000e+04
-8.465200000000000000e+04
-7.499400000000000000e+04
-8.084200000000000000e+04
-9.033400000000000000e+04
-8.646700000000000000e+04
-7.344700000000000000e+04
-7.957600000000000000e+04
-8.480600000000000000e+04
-8.861600000000000000e+04
-8.463100000000000000e+04
-8.172400000000000000e+04
-7.604100000000000000e+04
-7.645400000000000000e+04
-7.583800000000000000e+04
-7.364100000000000000e+04
-7.224400000000000000e+04
-6.408100000000000000e+04
-6.736600000000000000e+04
-8.167800000000000000e+04
-9.088400000000000000e+04
-6.849300000000000000e+04
-5.108600000000000000e+04
-6.685300000000000000e+04
-8.355600000000000000e+04
-8.180600000000000000e+04
-7.180700000000000000e+04
-6.779000000000000000e+04
-7.022700000000000000e+04
-7.383100000000000000e+04
-6.976900000000000000e+04
-6.807600000000000000e+04
-6.752900000000000000e+04
-7.699100000000000000e+04
-7.375100000000000000e+04
-7.203600000000000000e+04
-6.183100000000000000e+04
-6.451900000000000000e+04
-7.600400000000000000e+04
-7.732100000000000000e+04
-7.406700000000000000e+04
-6.762100000000000000e+04
-6.499000000000000000e+04
-7.068600000000000000e+04
-7.251200000000000000e+04
-7.729000000000000000e+04
-6.908100000000000000e+04
-5.936500000000000000e+04
-6.500600000000000000e+04
-7.722000000000000000e+04
-7.357000000000000000e+04
-7.532100000000000000e+04
-7.271100000000000000e+04
-7.104900000000000000e+04
-7.376300000000000000e+04
-7.610400000000000000e+04
-7.497400000000000000e+04
-5.933900000000000000e+04
-5.890600000000000000e+04
-7.278100000000000000e+04
-7.475200000000000000e+04
-7.475800000000000000e+04
-6.830600000000000000e+04
-6.655400000000000000e+04
-7.773200000000000000e+04
-8.006400000000000000e+04
-7.128700000000000000e+04
-7.095200000000000000e+04
-7.173500000000000000e+04
-6.543700000000000000e+04
-7.506700000000000000e+04
-7.757000000000000000e+04
-6.878900000000000000e+04
-7.827300000000000000e+04
-7.619100000000000000e+04
-7.719900000000000000e+04
-7.284100000000000000e+04
-6.087100000000000000e+04
-7.299700000000000000e+04
-7.861100000000000000e+04
-7.428300000000000000e+04
-7.416600000000000000e+04
-7.425000000000000000e+04
-7.235500000000000000e+04
-8.157700000000000000e+04
-8.827800000000000000e+04
-7.629500000000000000e+04
-6.855700000000000000e+04
-8.004100000000000000e+04
-8.699400000000000000e+04
-7.342600000000000000e+04
-6.241500000000000000e+04
-6.923900000000000000e+04
-8.420000000000000000e+04
-8.509200000000000000e+04
-7.717000000000000000e+04
-7.336900000000000000e+04
-7.575900000000000000e+04
-7.631800000000000000e+04
-7.486700000000000000e+04
-7.375400000000000000e+04
-7.399200000000000000e+04
-7.425400000000000000e+04
-8.347700000000000000e+04
-8.850400000000000000e+04
-7.825000000000000000e+04
-7.346300000000000000e+04
-6.007500000000000000e+04
-7.175700000000000000e+04
-8.772400000000000000e+04
-8.711100000000000000e+04
-7.761600000000000000e+04
-6.945700000000000000e+04
-6.823200000000000000e+04
-7.586700000000000000e+04
-8.520900000000000000e+04
-7.994100000000000000e+04
-8.244900000000000000e+04
-8.395400000000000000e+04
-7.828700000000000000e+04
-7.281600000000000000e+04
-7.428600000000000000e+04
-7.080900000000000000e+04
-7.579800000000000000e+04
-8.673200000000000000e+04
-7.695500000000000000e+04
-7.274400000000000000e+04
-8.197200000000000000e+04
-7.922900000000000000e+04
-8.406300000000000000e+04
-8.823900000000000000e+04
-7.839100000000000000e+04
-7.082100000000000000e+04
-7.288500000000000000e+04
-8.574900000000000000e+04
-9.197600000000000000e+04
-7.795700000000000000e+04
-7.190200000000000000e+04
-8.226500000000000000e+04
-8.147200000000000000e+04
-8.023100000000000000e+04
-7.823900000000000000e+04
-7.744900000000000000e+04
-7.629900000000000000e+04
-7.965400000000000000e+04
-8.431600000000000000e+04
-7.796300000000000000e+04
-7.630500000000000000e+04
-7.797400000000000000e+04
-8.409300000000000000e+04
-8.971300000000000000e+04
-8.146700000000000000e+04
-7.660800000000000000e+04
-7.560900000000000000e+04
-8.645900000000000000e+04
-9.427400000000000000e+04
-8.663100000000000000e+04
-7.449600000000000000e+04
-7.055100000000000000e+04
-8.363500000000000000e+04
-9.214100000000000000e+04
-8.678500000000000000e+04
-6.914200000000000000e+04
-7.713600000000000000e+04
-8.044100000000000000e+04
-8.095100000000000000e+04
-8.921100000000000000e+04
-7.509700000000000000e+04
-7.813000000000000000e+04
-9.046200000000000000e+04
-9.436600000000000000e+04
-8.590500000000000000e+04
-7.045100000000000000e+04
-7.461400000000000000e+04
-8.948700000000000000e+04
-8.686900000000000000e+04
-8.017900000000000000e+04
-7.994000000000000000e+04
-7.462100000000000000e+04
-8.311900000000000000e+04
-9.588100000000000000e+04
-9.753800000000000000e+04
-7.807000000000000000e+04
-6.617600000000000000e+04
-7.845200000000000000e+04
-8.902100000000000000e+04
-8.911900000000000000e+04
-8.799600000000000000e+04
-8.305300000000000000e+04
-8.391600000000000000e+04
-8.328100000000000000e+04
-8.755200000000000000e+04
-7.900100000000000000e+04
-7.749900000000000000e+04
-8.479600000000000000e+04
-8.860200000000000000e+04
-8.659600000000000000e+04
-8.121000000000000000e+04
-8.249200000000000000e+04
-8.771100000000000000e+04
-8.465600000000000000e+04
-8.980100000000000000e+04
-8.461300000000000000e+04
-7.966100000000000000e+04
-7.737700000000000000e+04
-8.815200000000000000e+04
-8.148400000000000000e+04
-7.416900000000000000e+04
-8.510100000000000000e+04
-9.139900000000000000e+04
-9.090900000000000000e+04
-9.409200000000000000e+04
-7.335100000000000000e+04
-6.959900000000000000e+04
-8.950400000000000000e+04
-9.583800000000000000e+04
-9.266100000000000000e+04
-7.705500000000000000e+04
-7.538200000000000000e+04
-8.465700000000000000e+04
-8.191300000000000000e+04
-9.008400000000000000e+04
-8.889700000000000000e+04
-8.790900000000000000e+04
-8.434300000000000000e+04
-8.722200000000000000e+04
-8.651700000000000000e+04
-7.643200000000000000e+04
-7.393800000000000000e+04
-9.101100000000000000e+04
-9.378000000000000000e+04
-8.707200000000000000e+04
-7.657200000000000000e+04
-7.543200000000000000e+04
-8.909500000000000000e+04
-9.632500000000000000e+04
-9.237000000000000000e+04
-8.517600000000000000e+04
-8.027400000000000000e+04
-7.955100000000000000e+04
-7.534700000000000000e+04
-8.737700000000000000e+04
-9.100700000000000000e+04
-8.436400000000000000e+04
-8.875400000000000000e+04
-9.152600000000000000e+04
-8.127900000000000000e+04
-7.916000000000000000e+04
-7.873100000000000000e+04
-8.373100000000000000e+04
-9.961400000000000000e+04
-9.949000000000000000e+04
-8.524700000000000000e+04
-7.634400000000000000e+04
-8.047200000000000000e+04
-8.740600000000000000e+04
-8.703200000000000000e+04
-8.333600000000000000e+04
-8.147300000000000000e+04
-8.801400000000000000e+04
-8.869200000000000000e+04
-7.939900000000000000e+04
-7.781400000000000000e+04
-8.988400000000000000e+04
-9.302000000000000000e+04
-8.113900000000000000e+04
-7.852700000000000000e+04
-8.079200000000000000e+04
-8.501700000000000000e+04
-8.801200000000000000e+04
-9.652200000000000000e+04
-9.437400000000000000e+04
-8.328100000000000000e+04
-7.972500000000000000e+04
-8.645800000000000000e+04
-9.493600000000000000e+04
-9.197400000000000000e+04
-7.727200000000000000e+04
-6.840600000000000000e+04
-7.774700000000000000e+04
-9.955300000000000000e+04
-9.537900000000000000e+04
-8.378600000000000000e+04
-7.304400000000000000e+04
-8.867700000000000000e+04
-1.010440000000000000e+05
-9.000300000000000000e+04
-7.311100000000000000e+04
-7.632800000000000000e+04
-8.482600000000000000e+04
-9.358800000000000000e+04
-9.340800000000000000e+04
-8.104700000000000000e+04
-7.039900000000000000e+04
-8.703900000000000000e+04
-9.993900000000000000e+04
-9.101600000000000000e+04
-7.238600000000000000e+04
-6.862500000000000000e+04
-9.148100000000000000e+04
-8.982700000000000000e+04
-9.054400000000000000e+04
-9.440200000000000000e+04
-8.176100000000000000e+04
-7.949100000000000000e+04
-8.561700000000000000e+04
-8.661100000000000000e+04
-8.558700000000000000e+04
-8.361600000000000000e+04
-8.251500000000000000e+04
-9.348100000000000000e+04
-9.260900000000000000e+04
-7.829900000000000000e+04
-7.434300000000000000e+04
-8.416700000000000000e+04
-9.458700000000000000e+04
-9.276200000000000000e+04
-8.331400000000000000e+04
-8.024800000000000000e+04
-8.444300000000000000e+04
-9.414600000000000000e+04
-8.201400000000000000e+04
-7.040300000000000000e+04
-9.064400000000000000e+04
-9.342400000000000000e+04
-9.097200000000000000e+04
-8.894900000000000000e+04
-7.451400000000000000e+04
-7.005400000000000000e+04
-9.024100000000000000e+04
-1.009090000000000000e+05
-9.251400000000000000e+04
-7.819700000000000000e+04
-8.702700000000000000e+04
-8.672700000000000000e+04
-8.302900000000000000e+04
-8.952600000000000000e+04
-8.140300000000000000e+04
-8.389800000000000000e+04
-8.989700000000000000e+04
-8.272700000000000000e+04
-8.865200000000000000e+04
-8.924700000000000000e+04
-8.382600000000000000e+04
-9.241400000000000000e+04
-9.012100000000000000e+04
-7.686000000000000000e+04
-7.167200000000000000e+04
-8.728300000000000000e+04
-9.465600000000000000e+04
-9.715100000000000000e+04
-9.228600000000000000e+04
-7.827700000000000000e+04
-7.107600000000000000e+04
-8.514900000000000000e+04
-9.814800000000000000e+04
-9.757200000000000000e+04
-8.315500000000000000e+04
-6.928100000000000000e+04
-8.304400000000000000e+04
-9.719400000000000000e+04
-9.657800000000000000e+04
-8.814600000000000000e+04
-7.318800000000000000e+04
-7.632900000000000000e+04
-9.239100000000000000e+04
-9.807100000000000000e+04
-8.240700000000000000e+04
-7.594900000000000000e+04
-8.259400000000000000e+04
-9.363800000000000000e+04
-8.734500000000000000e+04
-9.200100000000000000e+04
-8.622200000000000000e+04
-8.538600000000000000e+04
-8.148400000000000000e+04
-8.543200000000000000e+04
-8.529800000000000000e+04
-8.366200000000000000e+04
-7.863600000000000000e+04
-8.843900000000000000e+04
-9.978500000000000000e+04
-8.895500000000000000e+04
-7.700100000000000000e+04
-8.687100000000000000e+04
-9.750200000000000000e+04
-9.510200000000000000e+04
-7.980000000000000000e+04
-6.908100000000000000e+04
-7.945300000000000000e+04
-8.998600000000000000e+04
-9.911200000000000000e+04
-8.045200000000000000e+04
-7.349900000000000000e+04
-9.000600000000000000e+04
-9.301300000000000000e+04
-9.272400000000000000e+04
-8.955200000000000000e+04
-8.385400000000000000e+04
-7.736700000000000000e+04
-7.944700000000000000e+04
-9.117700000000000000e+04
-9.536700000000000000e+04
-8.832300000000000000e+04
-8.389800000000000000e+04
-8.753200000000000000e+04
-8.844500000000000000e+04
-8.495800000000000000e+04
-7.517200000000000000e+04
-7.914600000000000000e+04
-9.465200000000000000e+04
-9.873700000000000000e+04
-8.451100000000000000e+04
-8.297400000000000000e+04
-8.486400000000000000e+04
-8.665400000000000000e+04
-7.787900000000000000e+04
-8.392500000000000000e+04
-8.800700000000000000e+04
-9.200400000000000000e+04
-8.765500000000000000e+04
-8.866800000000000000e+04
-8.834900000000000000e+04
-8.192500000000000000e+04
-8.027400000000000000e+04
-8.677900000000000000e+04
-8.938700000000000000e+04
-8.412900000000000000e+04
-7.774100000000000000e+04
-8.762600000000000000e+04
-9.023100000000000000e+04
-9.634600000000000000e+04
-9.176400000000000000e+04
-8.089400000000000000e+04
-8.538200000000000000e+04
-8.469200000000000000e+04
-8.322000000000000000e+04
-9.057100000000000000e+04
-8.197000000000000000e+04
-7.776900000000000000e+04
-9.441700000000000000e+04
-9.607000000000000000e+04
-8.645200000000000000e+04
-7.687500000000000000e+04
-8.209700000000000000e+04
-8.725700000000000000e+04
-8.986900000000000000e+04
-7.973300000000000000e+04
-8.200000000000000000e+04
-9.507300000000000000e+04
-9.846400000000000000e+04
-8.409300000000000000e+04
-8.096000000000000000e+04
-8.309100000000000000e+04
-8.266000000000000000e+04
-9.180400000000000000e+04
-9.368200000000000000e+04
-8.612100000000000000e+04
-7.593600000000000000e+04
-8.266100000000000000e+04
-9.087600000000000000e+04
-9.385400000000000000e+04
-8.636700000000000000e+04
-8.186400000000000000e+04
-8.159100000000000000e+04
-8.749300000000000000e+04
-9.451900000000000000e+04
-9.271200000000000000e+04
-7.840400000000000000e+04
-7.875500000000000000e+04
-7.840300000000000000e+04
-8.954400000000000000e+04
-9.457600000000000000e+04
-7.605500000000000000e+04
-8.687700000000000000e+04
-9.774800000000000000e+04
-9.235400000000000000e+04
-7.872700000000000000e+04
-7.812600000000000000e+04
-8.894500000000000000e+04
-9.448300000000000000e+04
-9.256500000000000000e+04
-8.766600000000000000e+04
-7.967100000000000000e+04
-8.630200000000000000e+04
-8.845600000000000000e+04
-8.472800000000000000e+04
-8.519100000000000000e+04
-8.634400000000000000e+04
-8.504000000000000000e+04
-9.739200000000000000e+04
-9.269700000000000000e+04
-7.691900000000000000e+04
-7.357600000000000000e+04
-8.101600000000000000e+04
-9.948100000000000000e+04
-1.017760000000000000e+05
-9.603500000000000000e+04
-7.600100000000000000e+04
-6.738300000000000000e+04
-8.937900000000000000e+04
-1.074460000000000000e+05
-9.108700000000000000e+04
-6.127200000000000000e+04
-7.309200000000000000e+04
-9.312700000000000000e+04
-1.062880000000000000e+05
-9.364700000000000000e+04
-7.716100000000000000e+04
-8.238100000000000000e+04
-8.713200000000000000e+04
-9.861600000000000000e+04
-7.976100000000000000e+04
-7.343800000000000000e+04
-9.591900000000000000e+04
-9.867200000000000000e+04
-9.472900000000000000e+04
-8.413600000000000000e+04
-8.143900000000000000e+04
-8.194100000000000000e+04
-7.792200000000000000e+04
-9.582200000000000000e+04
-9.778200000000000000e+04
-8.850700000000000000e+04
-8.004000000000000000e+04
-7.876100000000000000e+04
-1.024890000000000000e+05
-1.056440000000000000e+05
-8.218200000000000000e+04
-8.106100000000000000e+04
-9.012400000000000000e+04
-9.157300000000000000e+04
-8.991900000000000000e+04
-8.411100000000000000e+04
-7.586900000000000000e+04
-9.071900000000000000e+04
-9.014600000000000000e+04
-8.907300000000000000e+04
-8.761700000000000000e+04
-9.327900000000000000e+04
-1.012420000000000000e+05
-9.989900000000000000e+04
-7.925700000000000000e+04
-7.575700000000000000e+04
-8.819200000000000000e+04
-9.233300000000000000e+04
-8.646700000000000000e+04
-8.841400000000000000e+04
-8.862100000000000000e+04
-9.396600000000000000e+04
-9.439400000000000000e+04
-8.930200000000000000e+04
-8.439900000000000000e+04
-8.689400000000000000e+04
-9.389700000000000000e+04
-9.707800000000000000e+04
-8.904200000000000000e+04
-8.543500000000000000e+04
-9.212200000000000000e+04
-8.981700000000000000e+04
-8.874500000000000000e+04
-9.988900000000000000e+04
-9.213900000000000000e+04
-8.020400000000000000e+04
-8.498800000000000000e+04
-7.878300000000000000e+04
-9.928200000000000000e+04
-1.001720000000000000e+05
-9.164100000000000000e+04
-7.589400000000000000e+04
-8.649600000000000000e+04
-1.115330000000000000e+05
-1.008220000000000000e+05
-8.569000000000000000e+04
-7.763400000000000000e+04
-8.082300000000000000e+04
-9.046100000000000000e+04
-9.630400000000000000e+04
-1.008060000000000000e+05
-8.669200000000000000e+04
-8.818800000000000000e+04
-9.220900000000000000e+04
-9.549000000000000000e+04
-9.277100000000000000e+04
-8.256200000000000000e+04
-9.435600000000000000e+04
-9.548600000000000000e+04
-9.384000000000000000e+04
-7.982100000000000000e+04
-9.323300000000000000e+04
-9.568200000000000000e+04
-9.753600000000000000e+04
-9.983400000000000000e+04
-9.350900000000000000e+04
-8.243100000000000000e+04
-8.581400000000000000e+04
-9.498700000000000000e+04
-8.615200000000000000e+04
-9.362600000000000000e+04
-8.980200000000000000e+04
-9.847600000000000000e+04
-1.072940000000000000e+05
-1.000910000000000000e+05
-8.739200000000000000e+04
-7.593700000000000000e+04
-8.729700000000000000e+04
-9.711000000000000000e+04
-9.004900000000000000e+04
-8.945700000000000000e+04
-9.191700000000000000e+04
-9.777000000000000000e+04
-1.000160000000000000e+05
-9.463900000000000000e+04
-9.191400000000000000e+04
-8.861900000000000000e+04
-9.164400000000000000e+04
-9.552900000000000000e+04
-9.479700000000000000e+04
-9.418200000000000000e+04
-8.883100000000000000e+04
-8.266000000000000000e+04
-8.972900000000000000e+04
-1.062390000000000000e+05
-9.604600000000000000e+04
-8.685600000000000000e+04
-8.984100000000000000e+04
-1.023310000000000000e+05
-1.056980000000000000e+05
-9.110600000000000000e+04
-8.518600000000000000e+04
-9.271800000000000000e+04
-9.498900000000000000e+04
-9.522400000000000000e+04
-8.835400000000000000e+04
-9.181400000000000000e+04
-1.047920000000000000e+05
-9.812300000000000000e+04
-9.575300000000000000e+04
-9.469100000000000000e+04
-8.730700000000000000e+04
-8.801800000000000000e+04
-9.808100000000000000e+04
-9.659400000000000000e+04
-9.610200000000000000e+04
-9.647900000000000000e+04
-9.832800000000000000e+04
-8.846800000000000000e+04
-8.550200000000000000e+04
-9.468700000000000000e+04
-8.764400000000000000e+04
-1.023860000000000000e+05
-1.049310000000000000e+05
-9.055600000000000000e+04
-8.193600000000000000e+04
-1.001160000000000000e+05
-1.008790000000000000e+05
-9.516300000000000000e+04
-9.008600000000000000e+04
-8.577400000000000000e+04
-9.481100000000000000e+04
-1.040320000000000000e+05
-9.558100000000000000e+04
-9.417100000000000000e+04
-1.059840000000000000e+05
-9.667100000000000000e+04
-9.161200000000000000e+04
-8.358600000000000000e+04
-1.105330000000000000e+05
-1.082410000000000000e+05
-9.560300000000000000e+04
-9.019200000000000000e+04
-9.389200000000000000e+04
-9.976800000000000000e+04
-9.127800000000000000e+04
-8.809500000000000000e+04
-1.004390000000000000e+05
-9.515800000000000000e+04
-8.568100000000000000e+04
-1.002270000000000000e+05
-1.060640000000000000e+05
-9.923800000000000000e+04
-9.789900000000000000e+04
-9.960400000000000000e+04
-9.220900000000000000e+04
-9.101000000000000000e+04
-9.686600000000000000e+04
-1.020820000000000000e+05
-9.964700000000000000e+04
-9.495700000000000000e+04
-8.573100000000000000e+04
-9.096400000000000000e+04
-1.037090000000000000e+05
-1.103920000000000000e+05
-9.983700000000000000e+04
-8.570400000000000000e+04
-9.327600000000000000e+04
-1.010410000000000000e+05
-1.065390000000000000e+05
-9.708300000000000000e+04
-9.420200000000000000e+04
-9.819800000000000000e+04
-9.739300000000000000e+04
-9.531500000000000000e+04
-9.461100000000000000e+04
-9.741200000000000000e+04
-1.060820000000000000e+05
-9.827200000000000000e+04
-9.368000000000000000e+04
-9.649500000000000000e+04
-1.007850000000000000e+05
-9.871500000000000000e+04
-1.021920000000000000e+05
-1.057410000000000000e+05
-8.574500000000000000e+04
-8.604800000000000000e+04
-1.069710000000000000e+05
-1.136850000000000000e+05
-1.007410000000000000e+05
-8.545400000000000000e+04
-8.343600000000000000e+04
-9.900600000000000000e+04
-1.133990000000000000e+05
-1.111150000000000000e+05
-1.013170000000000000e+05
-8.695700000000000000e+04
-9.277500000000000000e+04
-9.376600000000000000e+04
-1.092790000000000000e+05
-1.032550000000000000e+05
-9.210700000000000000e+04
-1.025040000000000000e+05
-1.130090000000000000e+05
-1.079560000000000000e+05
-9.628200000000000000e+04
-9.487200000000000000e+04
-9.802700000000000000e+04
-9.800000000000000000e+04
-9.577100000000000000e+04
-1.019640000000000000e+05
-1.009610000000000000e+05
-1.022790000000000000e+05
-1.011740000000000000e+05
-9.850700000000000000e+04
-9.125600000000000000e+04
-8.993600000000000000e+04
-9.740700000000000000e+04
-1.045190000000000000e+05
-1.153390000000000000e+05
-1.032580000000000000e+05
-9.094900000000000000e+04
-9.414300000000000000e+04
-1.031990000000000000e+05
-1.104290000000000000e+05
-1.076990000000000000e+05
-9.899200000000000000e+04
-9.561200000000000000e+04
-1.007090000000000000e+05
-1.099020000000000000e+05
-1.026770000000000000e+05
-9.471400000000000000e+04
-8.937600000000000000e+04
-1.050740000000000000e+05
-1.058220000000000000e+05
-9.583900000000000000e+04
-1.003310000000000000e+05
-9.543600000000000000e+04
-9.797400000000000000e+04
-1.066040000000000000e+05
-1.096590000000000000e+05
-1.015590000000000000e+05
-8.964100000000000000e+04
-1.049040000000000000e+05
-1.057450000000000000e+05
-1.121550000000000000e+05
-1.042010000000000000e+05
-9.591400000000000000e+04
-1.054990000000000000e+05
-1.054330000000000000e+05
-1.037670000000000000e+05
-9.476000000000000000e+04
-1.000180000000000000e+05
-1.091260000000000000e+05
-9.946800000000000000e+04
-8.324100000000000000e+04
-8.878100000000000000e+04
-1.087470000000000000e+05
-1.182250000000000000e+05
-1.130190000000000000e+05
-1.005910000000000000e+05
-1.006660000000000000e+05
-9.930800000000000000e+04
-1.013120000000000000e+05
-1.082060000000000000e+05
-1.020370000000000000e+05
-1.023050000000000000e+05
-1.016570000000000000e+05
-1.100560000000000000e+05
-1.123970000000000000e+05
-1.011460000000000000e+05
-9.431400000000000000e+04
-1.078560000000000000e+05
-1.076870000000000000e+05
-1.058590000000000000e+05
-1.005690000000000000e+05
-9.803800000000000000e+04
-1.006410000000000000e+05
-1.108000000000000000e+05
-1.076720000000000000e+05
-1.013960000000000000e+05
-1.054320000000000000e+05
-9.872000000000000000e+04
-1.093840000000000000e+05
-1.138270000000000000e+05
-9.717300000000000000e+04
-9.036300000000000000e+04
-1.067020000000000000e+05
-1.138340000000000000e+05
-1.018880000000000000e+05
-9.624700000000000000e+04
-1.058070000000000000e+05
-1.036710000000000000e+05
-1.093140000000000000e+05
-1.115320000000000000e+05
-1.096500000000000000e+05
-9.289900000000000000e+04
-8.425100000000000000e+04
-1.160890000000000000e+05
-1.215960000000000000e+05
-1.059340000000000000e+05
-9.125100000000000000e+04
-1.083110000000000000e+05
-1.149540000000000000e+05
-1.058400000000000000e+05
-1.029580000000000000e+05
-9.589300000000000000e+04
-9.866000000000000000e+04
-1.106620000000000000e+05
-1.150490000000000000e+05
-1.009120000000000000e+05
-1.015380000000000000e+05
-1.039710000000000000e+05
-1.015620000000000000e+05
-1.097320000000000000e+05
-1.146960000000000000e+05
-1.058860000000000000e+05
-9.851300000000000000e+04
-1.008020000000000000e+05
-1.093710000000000000e+05
-1.131500000000000000e+05
-9.822100000000000000e+04
-9.663900000000000000e+04
-1.066760000000000000e+05
-1.112630000000000000e+05
-1.108430000000000000e+05
-1.067160000000000000e+05
-1.065320000000000000e+05
-1.056820000000000000e+05
-1.102580000000000000e+05
-1.053710000000000000e+05
-9.609200000000000000e+04
-1.024470000000000000e+05
-1.184720000000000000e+05
-1.167790000000000000e+05
-1.138690000000000000e+05
-9.864400000000000000e+04
-1.000110000000000000e+05
-1.105670000000000000e+05
-1.130440000000000000e+05
-1.083570000000000000e+05
-1.017220000000000000e+05
-1.011770000000000000e+05
-1.117160000000000000e+05
-1.105220000000000000e+05
-1.087480000000000000e+05
-1.055130000000000000e+05
-9.535900000000000000e+04
-1.059410000000000000e+05
-1.163170000000000000e+05
-1.073970000000000000e+05
-1.017510000000000000e+05
-9.726000000000000000e+04
-1.126060000000000000e+05
-1.153990000000000000e+05
-1.122590000000000000e+05
-1.027330000000000000e+05
-9.963100000000000000e+04
-1.096160000000000000e+05
-1.171780000000000000e+05
-1.108770000000000000e+05
-9.563600000000000000e+04
-1.014620000000000000e+05
-1.074200000000000000e+05
-1.168980000000000000e+05
-1.108230000000000000e+05
-1.015010000000000000e+05
-1.062940000000000000e+05
-1.051910000000000000e+05
-1.043390000000000000e+05
-1.125960000000000000e+05
-1.065060000000000000e+05
-1.063120000000000000e+05
-1.016270000000000000e+05
-1.064760000000000000e+05
-1.101690000000000000e+05
-9.519200000000000000e+04
-1.088920000000000000e+05
-1.182040000000000000e+05
-1.155090000000000000e+05
-1.099190000000000000e+05
-1.019920000000000000e+05
-9.926300000000000000e+04
-1.057570000000000000e+05
-1.169370000000000000e+05
-1.145470000000000000e+05
-9.970900000000000000e+04
-9.587700000000000000e+04
-1.095810000000000000e+05
-1.168310000000000000e+05
-1.136670000000000000e+05
-1.032110000000000000e+05
-1.087630000000000000e+05
-1.039320000000000000e+05
-1.059280000000000000e+05
-1.212970000000000000e+05
-1.108610000000000000e+05
-1.024160000000000000e+05
-1.091560000000000000e+05
-1.133000000000000000e+05
-1.182200000000000000e+05
-1.018470000000000000e+05
-9.645100000000000000e+04
-1.096890000000000000e+05
-1.061540000000000000e+05
-1.089210000000000000e+05
-1.128180000000000000e+05
-1.053590000000000000e+05
-1.038570000000000000e+05
-1.198240000000000000e+05
-1.165370000000000000e+05
-1.013560000000000000e+05
-1.017330000000000000e+05
-1.063110000000000000e+05
-1.178840000000000000e+05
-1.160710000000000000e+05
-1.097680000000000000e+05
-1.037690000000000000e+05
-1.062480000000000000e+05
-1.129870000000000000e+05
-1.139870000000000000e+05
-1.087740000000000000e+05
-1.018430000000000000e+05
-1.125430000000000000e+05
-1.170320000000000000e+05
-1.121080000000000000e+05
-1.098440000000000000e+05
-1.060880000000000000e+05
-1.040500000000000000e+05
-1.098510000000000000e+05
-1.114410000000000000e+05
-1.088500000000000000e+05
-1.029200000000000000e+05
-1.066630000000000000e+05
-1.141540000000000000e+05
-1.084440000000000000e+05
-1.089360000000000000e+05
-1.036790000000000000e+05
-1.097100000000000000e+05
-1.154800000000000000e+05
-1.163120000000000000e+05
-1.033990000000000000e+05
-1.011550000000000000e+05
-1.186560000000000000e+05
-1.200880000000000000e+05
-1.097050000000000000e+05
-1.072810000000000000e+05
-1.046990000000000000e+05
-1.061620000000000000e+05
-1.191460000000000000e+05
-1.144140000000000000e+05
-1.013230000000000000e+05
-1.057560000000000000e+05
-1.091710000000000000e+05
-1.132330000000000000e+05
-1.131440000000000000e+05
-1.094320000000000000e+05
-1.036190000000000000e+05
-1.062470000000000000e+05
-1.186620000000000000e+05
-1.190740000000000000e+05
-1.081130000000000000e+05
-9.969500000000000000e+04
-1.056220000000000000e+05
-1.204470000000000000e+05
-1.139230000000000000e+05
-1.077950000000000000e+05
-1.098370000000000000e+05
-1.122270000000000000e+05
-1.133500000000000000e+05
-1.126310000000000000e+05
-1.085670000000000000e+05
-1.009020000000000000e+05
-1.068640000000000000e+05
-1.088570000000000000e+05
-1.134200000000000000e+05
-1.139820000000000000e+05
-1.051910000000000000e+05
-1.082440000000000000e+05
-1.101300000000000000e+05
-1.123660000000000000e+05
-1.084840000000000000e+05
-1.125290000000000000e+05
-1.156330000000000000e+05
-1.159320000000000000e+05
-1.093760000000000000e+05
-1.089860000000000000e+05
-1.098490000000000000e+05
-1.077830000000000000e+05
-1.119590000000000000e+05
-1.193250000000000000e+05
-1.175060000000000000e+05
-1.085630000000000000e+05
-1.097820000000000000e+05
-1.148580000000000000e+05
-1.152990000000000000e+05
-1.080580000000000000e+05
-9.927200000000000000e+04
-1.133290000000000000e+05
-1.167040000000000000e+05
-1.157010000000000000e+05
-1.060020000000000000e+05
-9.912700000000000000e+04
-1.084260000000000000e+05
-1.205520000000000000e+05
-1.147010000000000000e+05
-1.101700000000000000e+05
-1.073470000000000000e+05
-1.082290000000000000e+05
-1.158920000000000000e+05
-1.205460000000000000e+05
-1.135700000000000000e+05
-1.032010000000000000e+05
-1.083210000000000000e+05
-1.192520000000000000e+05
-1.173180000000000000e+05
-1.007270000000000000e+05
-1.028390000000000000e+05
-1.165460000000000000e+05
-1.178260000000000000e+05
-1.173790000000000000e+05
-1.110640000000000000e+05
-1.011960000000000000e+05
-1.011560000000000000e+05
-1.135210000000000000e+05
-1.200700000000000000e+05
-1.212520000000000000e+05
-1.032420000000000000e+05
-1.083670000000000000e+05
-1.227990000000000000e+05
-1.243710000000000000e+05
-1.161460000000000000e+05
-1.065320000000000000e+05
-1.081570000000000000e+05
-1.117740000000000000e+05
-1.117520000000000000e+05
-1.118640000000000000e+05
-1.101780000000000000e+05
-1.090470000000000000e+05
-1.145520000000000000e+05
-1.188460000000000000e+05
-1.116070000000000000e+05
-1.057220000000000000e+05
-1.093580000000000000e+05
-1.135660000000000000e+05
-1.184780000000000000e+05
-1.134960000000000000e+05
-1.060440000000000000e+05
-1.115720000000000000e+05
-1.161940000000000000e+05
-1.087120000000000000e+05
-1.082910000000000000e+05
-1.121460000000000000e+05
-1.164060000000000000e+05
-1.197090000000000000e+05
-1.168520000000000000e+05
-1.149340000000000000e+05
-1.093460000000000000e+05
-1.032320000000000000e+05
-1.147000000000000000e+05
-1.213760000000000000e+05
-1.130960000000000000e+05
-1.066240000000000000e+05
-1.095920000000000000e+05
-1.186030000000000000e+05
-1.151490000000000000e+05
-1.055770000000000000e+05
-1.087230000000000000e+05
-1.137940000000000000e+05
-1.194670000000000000e+05
-1.199920000000000000e+05
-1.091340000000000000e+05
-1.061530000000000000e+05
-1.030720000000000000e+05
-1.226140000000000000e+05
-1.236540000000000000e+05
-1.140970000000000000e+05
-1.064240000000000000e+05
-1.072670000000000000e+05
-1.174890000000000000e+05
-1.214910000000000000e+05
-1.184620000000000000e+05
-1.103960000000000000e+05
-1.088390000000000000e+05
-1.158490000000000000e+05
-1.132830000000000000e+05
-1.147740000000000000e+05
-1.100840000000000000e+05
-1.114210000000000000e+05
-1.186570000000000000e+05
-1.209820000000000000e+05
-1.138070000000000000e+05
-1.123670000000000000e+05
-1.145940000000000000e+05
-1.164050000000000000e+05
-1.163560000000000000e+05
-1.129360000000000000e+05
-1.059360000000000000e+05
-1.138640000000000000e+05
-1.184810000000000000e+05
-1.157410000000000000e+05
-1.111410000000000000e+05
-1.106110000000000000e+05
-1.181170000000000000e+05
-1.175710000000000000e+05
-1.142670000000000000e+05
-1.049260000000000000e+05
-1.056810000000000000e+05
-1.144010000000000000e+05
-1.207680000000000000e+05
-1.190540000000000000e+05
-1.138240000000000000e+05
-1.116810000000000000e+05
-1.137010000000000000e+05
-1.153470000000000000e+05
-1.199140000000000000e+05
-1.172220000000000000e+05
-1.111260000000000000e+05
-1.127380000000000000e+05
-1.201260000000000000e+05
-1.210100000000000000e+05
-1.160820000000000000e+05
-1.087360000000000000e+05
-1.099050000000000000e+05
-1.207530000000000000e+05
-1.177460000000000000e+05
-1.187590000000000000e+05
-1.080670000000000000e+05
-1.052740000000000000e+05
-1.132640000000000000e+05
-1.146410000000000000e+05
-1.181970000000000000e+05
-1.160090000000000000e+05
-1.102030000000000000e+05
-1.198990000000000000e+05
-1.146920000000000000e+05
-1.117240000000000000e+05
-1.145030000000000000e+05
-1.125010000000000000e+05
-1.118980000000000000e+05
-1.273370000000000000e+05
-1.284090000000000000e+05
-1.085910000000000000e+05
-1.067110000000000000e+05
-1.186380000000000000e+05
-1.265060000000000000e+05
-1.205020000000000000e+05
-1.079010000000000000e+05
-1.101590000000000000e+05
-1.195560000000000000e+05
-1.246470000000000000e+05
-1.241350000000000000e+05
-1.075460000000000000e+05
-1.118120000000000000e+05
-1.236560000000000000e+05
-1.246830000000000000e+05
-1.173620000000000000e+05
-1.118910000000000000e+05
-1.125540000000000000e+05
-1.156680000000000000e+05
-1.198270000000000000e+05
-1.225310000000000000e+05
-1.102630000000000000e+05
-1.086340000000000000e+05
-1.158220000000000000e+05
-1.212470000000000000e+05
-1.233340000000000000e+05
-1.158890000000000000e+05
-1.133610000000000000e+05
-1.169670000000000000e+05
-1.245940000000000000e+05
-1.255690000000000000e+05
-1.139460000000000000e+05
-1.108790000000000000e+05
-1.101320000000000000e+05
-1.244640000000000000e+05
-1.246010000000000000e+05
-1.161210000000000000e+05
-1.167850000000000000e+05
-1.187780000000000000e+05
-1.200480000000000000e+05
-1.216650000000000000e+05
-1.018240000000000000e+05
-1.110830000000000000e+05
-1.277790000000000000e+05
-1.209480000000000000e+05
-1.187020000000000000e+05
-1.177980000000000000e+05
-1.071500000000000000e+05
-1.174170000000000000e+05
-1.240460000000000000e+05
-1.261710000000000000e+05
-1.257190000000000000e+05
-1.202260000000000000e+05
-1.228120000000000000e+05
-1.284520000000000000e+05
-1.254000000000000000e+05
-1.165600000000000000e+05
-1.138910000000000000e+05
-1.200380000000000000e+05
-1.247030000000000000e+05
-1.219220000000000000e+05
-1.143700000000000000e+05
-1.130110000000000000e+05
-1.185780000000000000e+05
-1.247580000000000000e+05
-1.218350000000000000e+05
-1.154970000000000000e+05
-1.112880000000000000e+05
-1.175310000000000000e+05
-1.245110000000000000e+05
-1.256230000000000000e+05
-1.171020000000000000e+05
-1.101010000000000000e+05
-1.150770000000000000e+05
-1.238520000000000000e+05
-1.238540000000000000e+05
-1.140540000000000000e+05
-1.101680000000000000e+05
-1.166820000000000000e+05
-1.225700000000000000e+05
-1.225520000000000000e+05
-1.192590000000000000e+05
-1.173360000000000000e+05
-1.229660000000000000e+05
-1.279590000000000000e+05
-1.257090000000000000e+05
-1.181840000000000000e+05
-1.139520000000000000e+05
-1.193690000000000000e+05
-1.258940000000000000e+05
-1.259110000000000000e+05
-1.190950000000000000e+05
-1.164160000000000000e+05
-1.223930000000000000e+05
-1.276900000000000000e+05
-1.268450000000000000e+05
-1.217600000000000000e+05
-1.193100000000000000e+05
-1.253770000000000000e+05
-1.299760000000000000e+05
-1.283230000000000000e+05
-1.222480000000000000e+05
-1.191120000000000000e+05
-1.255310000000000000e+05
-1.319210000000000000e+05
-1.303460000000000000e+05
-1.235620000000000000e+05
-1.204500000000000000e+05
-1.271610000000000000e+05
-1.343500000000000000e+05
-1.335170000000000000e+05
-1.269640000000000000e+05
-1.230410000000000000e+05
-1.282280000000000000e+05
-1.340410000000000000e+05
-1.328890000000000000e+05
-1.259440000000000000e+05
-1.227050000000000000e+05
-1.286930000000000000e+05
-1.360190000000000000e+05
-1.360670000000000000e+05
-1.284290000000000000e+05
-1.235580000000000000e+05
-1.295780000000000000e+05
-1.370720000000000000e+05
-1.364920000000000000e+05
-1.290140000000000000e+05
-1.240960000000000000e+05
-1.297070000000000000e+05
-1.355570000000000000e+05
-1.348640000000000000e+05
-1.282470000000000000e+05
-1.239110000000000000e+05
-1.292320000000000000e+05
-1.358090000000000000e+05
-1.351120000000000000e+05
-1.286160000000000000e+05
-1.236590000000000000e+05
-1.288120000000000000e+05
-1.346110000000000000e+05
-1.341920000000000000e+05
-1.280310000000000000e+05
-1.237070000000000000e+05
-1.296080000000000000e+05
-1.368820000000000000e+05
-1.370440000000000000e+05
-1.304170000000000000e+05
-1.249340000000000000e+05
-1.299090000000000000e+05
-1.359790000000000000e+05
-1.356690000000000000e+05
-1.292430000000000000e+05
-1.247030000000000000e+05
-1.299520000000000000e+05
-1.361470000000000000e+05
-1.362180000000000000e+05
-1.299510000000000000e+05
-1.248340000000000000e+05
-1.301320000000000000e+05
-1.365410000000000000e+05
-1.366970000000000000e+05
-1.304320000000000000e+05
-1.249160000000000000e+05
-1.298450000000000000e+05
-1.371240000000000000e+05
-1.376270000000000000e+05
-1.314310000000000000e+05
-1.260930000000000000e+05
-1.307390000000000000e+05
-1.373490000000000000e+05
-1.378460000000000000e+05
-1.317960000000000000e+05
-1.263910000000000000e+05
-1.311060000000000000e+05
-1.382920000000000000e+05
-1.387460000000000000e+05
-1.324380000000000000e+05
-1.268210000000000000e+05
-1.313090000000000000e+05
-1.383660000000000000e+05
-1.389860000000000000e+05
-1.328080000000000000e+05
-1.273000000000000000e+05
-1.313330000000000000e+05
-1.384020000000000000e+05
-1.391060000000000000e+05
-1.328540000000000000e+05
-1.275910000000000000e+05
-1.316530000000000000e+05
-1.385960000000000000e+05
-1.394120000000000000e+05
-1.336480000000000000e+05
-1.280120000000000000e+05
-1.318940000000000000e+05
-1.391000000000000000e+05
-1.401020000000000000e+05
-1.339450000000000000e+05
-1.281240000000000000e+05
-1.319470000000000000e+05
-1.395620000000000000e+05
-1.405400000000000000e+05
-1.347150000000000000e+05
-1.289520000000000000e+05
-1.326100000000000000e+05
-1.396260000000000000e+05
-1.409730000000000000e+05
-1.354010000000000000e+05
-1.291510000000000000e+05
-1.327330000000000000e+05
-1.401020000000000000e+05
-1.414560000000000000e+05
-1.361310000000000000e+05
-1.297990000000000000e+05
-1.330910000000000000e+05
-1.402610000000000000e+05
-1.416660000000000000e+05
-1.358450000000000000e+05
-1.294800000000000000e+05
-1.331670000000000000e+05
-1.401720000000000000e+05
-1.419310000000000000e+05
-1.367850000000000000e+05
-1.301700000000000000e+05
-1.332440000000000000e+05
-1.402650000000000000e+05
-1.418240000000000000e+05
-1.365940000000000000e+05
-1.303990000000000000e+05
-1.332660000000000000e+05
-1.402100000000000000e+05
-1.421090000000000000e+05
-1.372860000000000000e+05
-1.305530000000000000e+05
-1.333210000000000000e+05
-1.405490000000000000e+05
-1.428060000000000000e+05
-1.377860000000000000e+05
-1.311120000000000000e+05
-1.334650000000000000e+05
-1.406990000000000000e+05
-1.431810000000000000e+05
-1.382440000000000000e+05
-1.316200000000000000e+05
-1.338740000000000000e+05
-1.412410000000000000e+05
-1.437340000000000000e+05
-1.387160000000000000e+05
-1.321010000000000000e+05
-1.342140000000000000e+05
-1.417560000000000000e+05
-1.441560000000000000e+05
-1.391810000000000000e+05
-1.320640000000000000e+05
-1.342950000000000000e+05
-1.417870000000000000e+05
-1.443690000000000000e+05
-1.399330000000000000e+05
-1.330680000000000000e+05
-1.346900000000000000e+05
-1.419410000000000000e+05
-1.448490000000000000e+05
-1.403520000000000000e+05
-1.334570000000000000e+05
-1.351190000000000000e+05
-1.421710000000000000e+05
-1.449850000000000000e+05
-1.408470000000000000e+05
-1.339170000000000000e+05
-1.354120000000000000e+05
-1.428390000000000000e+05
-1.457140000000000000e+05
-1.414200000000000000e+05
-1.344290000000000000e+05
-1.353560000000000000e+05
-1.428670000000000000e+05
-1.458850000000000000e+05
-1.416360000000000000e+05
-1.346870000000000000e+05
-1.360240000000000000e+05
-1.434310000000000000e+05
-1.463890000000000000e+05
-1.423720000000000000e+05
-1.353820000000000000e+05
-1.360310000000000000e+05
-1.434620000000000000e+05
-1.468010000000000000e+05
-1.425160000000000000e+05
-1.351970000000000000e+05
-1.358520000000000000e+05
-1.428660000000000000e+05
-1.460040000000000000e+05
-1.421040000000000000e+05
-1.354090000000000000e+05
-1.366310000000000000e+05
-1.449860000000000000e+05
-1.489550000000000000e+05
-1.450710000000000000e+05
-1.379730000000000000e+05
-1.380810000000000000e+05
-1.450260000000000000e+05
-1.485440000000000000e+05
-1.446460000000000000e+05
-1.375370000000000000e+05
-1.377940000000000000e+05
-1.449160000000000000e+05
-1.482960000000000000e+05
-1.445650000000000000e+05
-1.377750000000000000e+05
-1.380680000000000000e+05
-1.454080000000000000e+05
-1.493690000000000000e+05
-1.459600000000000000e+05
-1.388970000000000000e+05
-1.386600000000000000e+05
-1.458190000000000000e+05
-1.497390000000000000e+05
-1.461640000000000000e+05
-1.391780000000000000e+05
-1.390370000000000000e+05
-1.461690000000000000e+05
-1.501610000000000000e+05
-1.469860000000000000e+05
-1.400230000000000000e+05
-1.395990000000000000e+05
-1.466170000000000000e+05
-1.509830000000000000e+05
-1.475910000000000000e+05
-1.405150000000000000e+05
-1.397810000000000000e+05
-1.468970000000000000e+05
-1.511270000000000000e+05
-1.482620000000000000e+05
-1.412730000000000000e+05
-1.404010000000000000e+05
-1.475590000000000000e+05
-1.518760000000000000e+05
-1.486300000000000000e+05
-1.417970000000000000e+05
-1.411360000000000000e+05
-1.479820000000000000e+05
-1.522880000000000000e+05
-1.492870000000000000e+05
-1.421440000000000000e+05
-1.410720000000000000e+05
-1.479820000000000000e+05
-1.526710000000000000e+05
-1.499480000000000000e+05
-1.427620000000000000e+05
-1.415940000000000000e+05
-1.483170000000000000e+05
-1.534300000000000000e+05
-1.507660000000000000e+05
-1.434110000000000000e+05
-1.417460000000000000e+05
-1.485610000000000000e+05
-1.534890000000000000e+05
-1.508180000000000000e+05
-1.437550000000000000e+05
-1.423090000000000000e+05
-1.488170000000000000e+05
-1.538590000000000000e+05
-1.514270000000000000e+05
-1.442990000000000000e+05
-1.428840000000000000e+05
-1.494510000000000000e+05
-1.540840000000000000e+05
-1.520240000000000000e+05
-1.447970000000000000e+05
-1.426290000000000000e+05
-1.490640000000000000e+05
-1.543330000000000000e+05
-1.522440000000000000e+05
-1.450570000000000000e+05
-1.430420000000000000e+05
-1.496150000000000000e+05
-1.545380000000000000e+05
-1.526390000000000000e+05
-1.457880000000000000e+05
-1.435420000000000000e+05
-1.499440000000000000e+05
-1.548790000000000000e+05
-1.530760000000000000e+05
-1.463340000000000000e+05
-1.438410000000000000e+05
-1.502930000000000000e+05
-1.557110000000000000e+05
-1.537840000000000000e+05
-1.467930000000000000e+05
-1.440910000000000000e+05
-1.504090000000000000e+05
-1.560490000000000000e+05
-1.543120000000000000e+05
-1.471990000000000000e+05
-1.443570000000000000e+05
-1.507990000000000000e+05
-1.564300000000000000e+05
-1.548420000000000000e+05
-1.480380000000000000e+05
-1.452160000000000000e+05
-1.514030000000000000e+05
-1.570340000000000000e+05
-1.555430000000000000e+05
-1.485050000000000000e+05
-1.453180000000000000e+05
-1.517060000000000000e+05
-1.573270000000000000e+05
-1.560210000000000000e+05
-1.492980000000000000e+05
-1.460310000000000000e+05
-1.519910000000000000e+05
-1.578060000000000000e+05
-1.566370000000000000e+05
-1.496680000000000000e+05
-1.462790000000000000e+05
-1.524750000000000000e+05
-1.584170000000000000e+05
-1.573170000000000000e+05
-1.505380000000000000e+05
-1.469710000000000000e+05
-1.530280000000000000e+05
-1.588940000000000000e+05
-1.579580000000000000e+05
-1.510880000000000000e+05
-1.472490000000000000e+05
-1.532420000000000000e+05
-1.592840000000000000e+05
-1.587120000000000000e+05
-1.521820000000000000e+05
-1.479570000000000000e+05
-1.534990000000000000e+05
-1.596030000000000000e+05
-1.588660000000000000e+05
-1.522340000000000000e+05
-1.482820000000000000e+05
-1.540410000000000000e+05
-1.602130000000000000e+05
-1.593330000000000000e+05
-1.525090000000000000e+05
-1.479890000000000000e+05
-1.536300000000000000e+05
-1.595970000000000000e+05
-1.587570000000000000e+05
-1.524760000000000000e+05
-1.485340000000000000e+05
-1.545060000000000000e+05
-1.615670000000000000e+05
-1.617390000000000000e+05
-1.551660000000000000e+05
-1.502190000000000000e+05
-1.552850000000000000e+05
-1.614060000000000000e+05
-1.609990000000000000e+05
-1.546520000000000000e+05
-1.498190000000000000e+05
-1.549270000000000000e+05
-1.615180000000000000e+05
-1.612720000000000000e+05
-1.548930000000000000e+05
-1.503150000000000000e+05
-1.553340000000000000e+05
-1.618350000000000000e+05
-1.619740000000000000e+05
-1.556130000000000000e+05
-1.506290000000000000e+05
-1.554890000000000000e+05
-1.622760000000000000e+05
-1.622560000000000000e+05
-1.559880000000000000e+05
-1.512200000000000000e+05
-1.558090000000000000e+05
-1.623710000000000000e+05
-1.629510000000000000e+05
-1.566270000000000000e+05
-1.514220000000000000e+05
-1.561340000000000000e+05
-1.629860000000000000e+05
-1.635410000000000000e+05
-1.574200000000000000e+05
-1.522790000000000000e+05
-1.568160000000000000e+05
-1.634880000000000000e+05
-1.639620000000000000e+05
-1.579390000000000000e+05
-1.528090000000000000e+05
-1.571820000000000000e+05
-1.639290000000000000e+05
-1.645510000000000000e+05
-1.585970000000000000e+05
-1.530940000000000000e+05
-1.572910000000000000e+05
-1.641310000000000000e+05
-1.649820000000000000e+05
-1.591070000000000000e+05
-1.534070000000000000e+05
-1.575460000000000000e+05
-1.645520000000000000e+05
-1.653830000000000000e+05
-1.595790000000000000e+05
-1.539070000000000000e+05
-1.578600000000000000e+05
-1.645800000000000000e+05
-1.655310000000000000e+05
-1.599260000000000000e+05
-1.540290000000000000e+05
-1.579830000000000000e+05
-1.650450000000000000e+05
-1.661070000000000000e+05
-1.603560000000000000e+05
-1.544370000000000000e+05
-1.581060000000000000e+05
-1.652740000000000000e+05
-1.665610000000000000e+05
-1.608560000000000000e+05
-1.546430000000000000e+05
-1.583520000000000000e+05
-1.654840000000000000e+05
-1.669710000000000000e+05
-1.612560000000000000e+05
-1.551290000000000000e+05
-1.585430000000000000e+05
-1.658260000000000000e+05
-1.673390000000000000e+05
-1.618790000000000000e+05
-1.557260000000000000e+05
-1.588660000000000000e+05
-1.658800000000000000e+05
-1.675930000000000000e+05
-1.622040000000000000e+05
-1.559810000000000000e+05
-1.591170000000000000e+05
-1.661880000000000000e+05
-1.680720000000000000e+05
-1.629340000000000000e+05
-1.563890000000000000e+05
-1.593670000000000000e+05
-1.664600000000000000e+05
-1.684040000000000000e+05
-1.632940000000000000e+05
-1.569870000000000000e+05
-1.597390000000000000e+05
-1.668750000000000000e+05
-1.688360000000000000e+05
-1.637460000000000000e+05
-1.573300000000000000e+05
-1.599290000000000000e+05
-1.670610000000000000e+05
-1.692260000000000000e+05
-1.642720000000000000e+05
-1.575900000000000000e+05
-1.600980000000000000e+05
-1.671720000000000000e+05
-1.696170000000000000e+05
-1.649130000000000000e+05
-1.580520000000000000e+05
-1.604650000000000000e+05
-1.676420000000000000e+05
-1.699360000000000000e+05
-1.651970000000000000e+05
-1.587040000000000000e+05
-1.608970000000000000e+05
-1.681050000000000000e+05
-1.705160000000000000e+05
-1.657810000000000000e+05
-1.591290000000000000e+05
-1.610910000000000000e+05
-1.683540000000000000e+05
-1.710050000000000000e+05
-1.664110000000000000e+05
-1.596350000000000000e+05
-1.613660000000000000e+05
-1.686030000000000000e+05
-1.713610000000000000e+05
-1.668520000000000000e+05
-1.601520000000000000e+05
-1.617810000000000000e+05
-1.690240000000000000e+05
-1.718700000000000000e+05
-1.673610000000000000e+05
-1.605110000000000000e+05
-1.619540000000000000e+05
-1.693850000000000000e+05
-1.724870000000000000e+05
-1.680360000000000000e+05
-1.610580000000000000e+05
-1.623540000000000000e+05
-1.695910000000000000e+05
-1.727320000000000000e+05
-1.683550000000000000e+05
-1.612250000000000000e+05
-1.620440000000000000e+05
-1.690520000000000000e+05
-1.721120000000000000e+05
-1.679920000000000000e+05
-1.609860000000000000e+05
-1.619910000000000000e+05
-1.698490000000000000e+05
-1.741990000000000000e+05
-1.704950000000000000e+05
-1.633470000000000000e+05
-1.641230000000000000e+05
-1.710830000000000000e+05
-1.742310000000000000e+05
-1.701460000000000000e+05
-1.628610000000000000e+05
-1.632650000000000000e+05
-1.705360000000000000e+05
-1.741600000000000000e+05
-1.702060000000000000e+05
-1.629660000000000000e+05
-1.633270000000000000e+05
-1.705890000000000000e+05
-1.743590000000000000e+05
-1.706180000000000000e+05
-1.635040000000000000e+05
-1.637750000000000000e+05
-1.709240000000000000e+05
-1.746390000000000000e+05
-1.711240000000000000e+05
-1.639630000000000000e+05
-1.637580000000000000e+05
-1.707610000000000000e+05
-1.746260000000000000e+05
-1.715140000000000000e+05
-1.645270000000000000e+05
-1.642060000000000000e+05
-1.712510000000000000e+05
-1.752240000000000000e+05
-1.717080000000000000e+05
-1.646040000000000000e+05
-1.643590000000000000e+05
-1.714910000000000000e+05
-1.755970000000000000e+05
-1.722320000000000000e+05
-1.648910000000000000e+05
-1.643880000000000000e+05
-1.715390000000000000e+05
-1.757420000000000000e+05
-1.724530000000000000e+05
-1.652040000000000000e+05
-1.644760000000000000e+05
-1.715190000000000000e+05
-1.758560000000000000e+05
-1.727780000000000000e+05
-1.655400000000000000e+05
-1.646540000000000000e+05
-1.716040000000000000e+05
-1.758580000000000000e+05
-1.727740000000000000e+05
-1.655560000000000000e+05
-1.648820000000000000e+05
-1.717310000000000000e+05
-1.761670000000000000e+05
-1.733190000000000000e+05
-1.661340000000000000e+05
-1.648510000000000000e+05
-1.717250000000000000e+05
-1.763500000000000000e+05
-1.736020000000000000e+05
-1.662920000000000000e+05
-1.648720000000000000e+05
-1.715950000000000000e+05
-1.764060000000000000e+05
-1.738130000000000000e+05
-1.665520000000000000e+05
-1.650150000000000000e+05
-1.717380000000000000e+05
-1.765510000000000000e+05
-1.740670000000000000e+05
-1.666820000000000000e+05
-1.648890000000000000e+05
-1.716760000000000000e+05
-1.767960000000000000e+05
-1.740860000000000000e+05
-1.669020000000000000e+05
-1.653210000000000000e+05
-1.720030000000000000e+05
-1.767340000000000000e+05
-1.744120000000000000e+05
-1.674820000000000000e+05
-1.653870000000000000e+05
-1.719830000000000000e+05
-1.770720000000000000e+05
-1.749130000000000000e+05
-1.676580000000000000e+05
-1.653520000000000000e+05
-1.717660000000000000e+05
-1.769710000000000000e+05
-1.749140000000000000e+05
-1.677520000000000000e+05
-1.651890000000000000e+05
-1.716660000000000000e+05
-1.769040000000000000e+05
-1.747120000000000000e+05
-1.680260000000000000e+05
-1.654180000000000000e+05
-1.718290000000000000e+05
-1.771170000000000000e+05
-1.752010000000000000e+05
-1.680770000000000000e+05
-1.654440000000000000e+05
-1.717940000000000000e+05
-1.772670000000000000e+05
-1.754370000000000000e+05
-1.683890000000000000e+05
-1.654650000000000000e+05
-1.715670000000000000e+05
-1.771850000000000000e+05
-1.755510000000000000e+05
-1.685690000000000000e+05
-1.656190000000000000e+05
-1.717060000000000000e+05
-1.771910000000000000e+05
-1.757540000000000000e+05
-1.689340000000000000e+05
-1.656550000000000000e+05
-1.716860000000000000e+05
-1.773770000000000000e+05
-1.760720000000000000e+05
-1.691310000000000000e+05
-1.656360000000000000e+05
-1.717890000000000000e+05
-1.775840000000000000e+05
-1.762750000000000000e+05
-1.693090000000000000e+05
-1.658200000000000000e+05
-1.716070000000000000e+05
-1.775660000000000000e+05
-1.765700000000000000e+05
-1.696770000000000000e+05
-1.659580000000000000e+05
-1.716800000000000000e+05
-1.776460000000000000e+05
-1.767670000000000000e+05
-1.699410000000000000e+05
-1.661790000000000000e+05
-1.718780000000000000e+05
-1.779080000000000000e+05
-1.769610000000000000e+05
-1.699780000000000000e+05
-1.658000000000000000e+05
-1.711950000000000000e+05
-1.770420000000000000e+05
-1.759490000000000000e+05
-1.690130000000000000e+05
-1.652340000000000000e+05
-1.711830000000000000e+05
-1.780210000000000000e+05
-1.781220000000000000e+05
-1.718900000000000000e+05
-1.674340000000000000e+05
-1.723070000000000000e+05
-1.784190000000000000e+05
-1.777170000000000000e+05
-1.709070000000000000e+05
-1.665630000000000000e+05
-1.718920000000000000e+05
-1.780270000000000000e+05
-1.775380000000000000e+05
-1.711390000000000000e+05
-1.666590000000000000e+05
-1.718490000000000000e+05
-1.780870000000000000e+05
-1.778240000000000000e+05
-1.713560000000000000e+05
-1.668070000000000000e+05
-1.719750000000000000e+05
-1.783090000000000000e+05
-1.780520000000000000e+05
-1.715200000000000000e+05
-1.667610000000000000e+05
-1.715210000000000000e+05
-1.778970000000000000e+05
-1.781970000000000000e+05
-1.717810000000000000e+05
-1.670120000000000000e+05
-1.718140000000000000e+05
-1.783450000000000000e+05
-1.784140000000000000e+05
-1.719180000000000000e+05
-1.670470000000000000e+05
-1.717970000000000000e+05
-1.782720000000000000e+05
-1.786240000000000000e+05
-1.721810000000000000e+05
-1.669620000000000000e+05
-1.716920000000000000e+05
-1.782610000000000000e+05
-1.786860000000000000e+05
-1.724860000000000000e+05
-1.669150000000000000e+05
-1.712360000000000000e+05
-1.782350000000000000e+05
-1.787890000000000000e+05
-1.725950000000000000e+05
-1.671920000000000000e+05
-1.715240000000000000e+05
-1.782340000000000000e+05
-1.787840000000000000e+05
-1.726460000000000000e+05
-1.672210000000000000e+05
-1.714010000000000000e+05
-1.780910000000000000e+05
-1.787390000000000000e+05
-1.726410000000000000e+05
-1.669320000000000000e+05
-1.710940000000000000e+05
-1.781650000000000000e+05
-1.789100000000000000e+05
-1.728710000000000000e+05
-1.670770000000000000e+05
-1.710410000000000000e+05
-1.779320000000000000e+05
-1.789120000000000000e+05
-1.730580000000000000e+05
-1.674600000000000000e+05
-1.711320000000000000e+05
-1.779240000000000000e+05
-1.790730000000000000e+05
-1.732390000000000000e+05
-1.673750000000000000e+05
-1.711440000000000000e+05
-1.779830000000000000e+05
-1.789820000000000000e+05
-1.733530000000000000e+05
-1.677470000000000000e+05
-1.711720000000000000e+05
-1.780180000000000000e+05
-1.793090000000000000e+05
-1.737770000000000000e+05
-1.677920000000000000e+05
-1.709130000000000000e+05
-1.779340000000000000e+05
-1.795660000000000000e+05
-1.740490000000000000e+05
-1.678290000000000000e+05
-1.708380000000000000e+05
-1.778280000000000000e+05
-1.793990000000000000e+05
-1.740940000000000000e+05
-1.678970000000000000e+05
-1.707710000000000000e+05
-1.777990000000000000e+05
-1.794680000000000000e+05
-1.741060000000000000e+05
-1.679540000000000000e+05
-1.710360000000000000e+05
-1.780040000000000000e+05
-1.797920000000000000e+05
-1.745060000000000000e+05
-1.682060000000000000e+05
-1.709010000000000000e+05
-1.777480000000000000e+05
-1.794210000000000000e+05
-1.747470000000000000e+05
-1.684250000000000000e+05
-1.709090000000000000e+05
-1.779620000000000000e+05
-1.799670000000000000e+05
-1.748690000000000000e+05
-1.682970000000000000e+05
-1.706820000000000000e+05
-1.777660000000000000e+05
-1.799160000000000000e+05
-1.750730000000000000e+05
-1.684260000000000000e+05
-1.704600000000000000e+05
-1.775320000000000000e+05
-1.801150000000000000e+05
-1.751630000000000000e+05
-1.685040000000000000e+05
-1.705740000000000000e+05
-1.778040000000000000e+05
-1.801090000000000000e+05
-1.753090000000000000e+05
-1.687200000000000000e+05
-1.706300000000000000e+05
-1.777300000000000000e+05
-1.801900000000000000e+05
-1.755200000000000000e+05
-1.686990000000000000e+05
-1.704900000000000000e+05
-1.775620000000000000e+05
-1.802320000000000000e+05
-1.756650000000000000e+05
-1.687760000000000000e+05
-1.704640000000000000e+05
-1.777750000000000000e+05
-1.805640000000000000e+05
-1.759430000000000000e+05
-1.688370000000000000e+05
-1.702970000000000000e+05
-1.772370000000000000e+05
-1.799910000000000000e+05
-1.753740000000000000e+05
-1.683270000000000000e+05
-1.695300000000000000e+05
-1.767380000000000000e+05
-1.799290000000000000e+05
-1.763570000000000000e+05
-1.702100000000000000e+05
-1.712810000000000000e+05
-1.785350000000000000e+05
-1.813690000000000000e+05
-1.769320000000000000e+05
-1.696860000000000000e+05
-1.704100000000000000e+05
-1.774770000000000000e+05
-1.805890000000000000e+05
-1.764260000000000000e+05
-1.693130000000000000e+05
-1.699800000000000000e+05
-1.771290000000000000e+05
-1.804670000000000000e+05
-1.764440000000000000e+05
-1.694110000000000000e+05
-1.699210000000000000e+05
-1.771650000000000000e+05
-1.804610000000000000e+05
-1.765130000000000000e+05
-1.694670000000000000e+05
-1.699860000000000000e+05
-1.769620000000000000e+05
-1.806960000000000000e+05
-1.768980000000000000e+05
-1.697840000000000000e+05
-1.700270000000000000e+05
-1.769390000000000000e+05
-1.804910000000000000e+05
-1.770070000000000000e+05
-1.698990000000000000e+05
-1.699180000000000000e+05
-1.768440000000000000e+05
-1.806170000000000000e+05
-1.769710000000000000e+05
-1.698510000000000000e+05
-1.696070000000000000e+05
-1.767270000000000000e+05
-1.806560000000000000e+05
-1.770160000000000000e+05
-1.698780000000000000e+05
-1.697070000000000000e+05
-1.766970000000000000e+05
-1.804990000000000000e+05
-1.773100000000000000e+05
-1.701150000000000000e+05
-1.696310000000000000e+05
-1.768010000000000000e+05
-1.808400000000000000e+05
-1.775640000000000000e+05
-1.703810000000000000e+05
-1.697490000000000000e+05
-1.766610000000000000e+05
-1.808030000000000000e+05
-1.776270000000000000e+05
-1.702670000000000000e+05
-1.693640000000000000e+05
-1.764450000000000000e+05
-1.809100000000000000e+05
-1.776860000000000000e+05
-1.704530000000000000e+05
-1.695790000000000000e+05
-1.765460000000000000e+05
-1.808650000000000000e+05
-1.777100000000000000e+05
-1.706320000000000000e+05
-1.696410000000000000e+05
-1.763700000000000000e+05
-1.807610000000000000e+05
-1.778390000000000000e+05
-1.707030000000000000e+05
-1.695110000000000000e+05
-1.763190000000000000e+05
-1.810590000000000000e+05
-1.781880000000000000e+05
-1.709670000000000000e+05
-1.694400000000000000e+05
-1.762270000000000000e+05
-1.808140000000000000e+05
-1.783140000000000000e+05
-1.710750000000000000e+05
-1.695060000000000000e+05
-1.763260000000000000e+05
-1.810790000000000000e+05
-1.785070000000000000e+05
-1.712520000000000000e+05
-1.695540000000000000e+05
-1.761520000000000000e+05
-1.808030000000000000e+05
-1.784290000000000000e+05
-1.714690000000000000e+05
-1.697670000000000000e+05
-1.762190000000000000e+05
-1.811190000000000000e+05
-1.787720000000000000e+05
-1.716080000000000000e+05
-1.695900000000000000e+05
-1.761040000000000000e+05
-1.812470000000000000e+05
-1.789920000000000000e+05
-1.718730000000000000e+05
-1.696000000000000000e+05
-1.758740000000000000e+05
-1.808530000000000000e+05
-1.789550000000000000e+05
-1.719540000000000000e+05
-1.696310000000000000e+05
-1.760540000000000000e+05
-1.810610000000000000e+05
-1.790250000000000000e+05
-1.720970000000000000e+05
-1.695220000000000000e+05
-1.757790000000000000e+05
-1.809790000000000000e+05
-1.791360000000000000e+05
-1.722640000000000000e+05
-1.695920000000000000e+05
-1.756570000000000000e+05
-1.810410000000000000e+05
-1.794360000000000000e+05
-1.723700000000000000e+05
-1.694580000000000000e+05
-1.756150000000000000e+05
-1.809700000000000000e+05
-1.793160000000000000e+05
-1.725930000000000000e+05
-1.696180000000000000e+05
-1.757020000000000000e+05
-1.810490000000000000e+05
-1.795890000000000000e+05
-1.728260000000000000e+05
-1.695440000000000000e+05
-1.755110000000000000e+05
-1.812220000000000000e+05
-1.799020000000000000e+05
-1.729810000000000000e+05
-1.696160000000000000e+05
-1.753930000000000000e+05
-1.808990000000000000e+05
-1.798370000000000000e+05
-1.731360000000000000e+05
-1.695640000000000000e+05
-1.754520000000000000e+05
-1.810860000000000000e+05
-1.797770000000000000e+05
-1.727110000000000000e+05
-1.689530000000000000e+05
-1.746220000000000000e+05
-1.802290000000000000e+05
-1.792870000000000000e+05
-1.728980000000000000e+05
-1.697020000000000000e+05
-1.762660000000000000e+05
-1.825710000000000000e+05
-1.815470000000000000e+05
-1.744680000000000000e+05
-1.703820000000000000e+05
-1.756960000000000000e+05
-1.814220000000000000e+05
-1.805770000000000000e+05
-1.737410000000000000e+05
-1.696760000000000000e+05
-1.753090000000000000e+05
-1.813550000000000000e+05
-1.806970000000000000e+05
-1.740320000000000000e+05
-1.698790000000000000e+05
-1.752430000000000000e+05
-1.812440000000000000e+05
-1.807060000000000000e+05
-1.740660000000000000e+05
-1.696860000000000000e+05
-1.750870000000000000e+05
-1.811600000000000000e+05
-1.807410000000000000e+05
-1.743060000000000000e+05
-1.699320000000000000e+05
-1.750580000000000000e+05
-1.811860000000000000e+05
-1.808120000000000000e+05
-1.744370000000000000e+05
-1.699630000000000000e+05
-1.749290000000000000e+05
-1.811810000000000000e+05
-1.810540000000000000e+05
-1.746210000000000000e+05
-1.698180000000000000e+05
-1.749140000000000000e+05
-1.812090000000000000e+05
-1.810490000000000000e+05
-1.747390000000000000e+05
-1.698550000000000000e+05
-1.746510000000000000e+05
-1.811130000000000000e+05
-1.812480000000000000e+05
-1.749620000000000000e+05
-1.699480000000000000e+05
-1.743520000000000000e+05
-1.808260000000000000e+05
-1.812510000000000000e+05
-1.751010000000000000e+05
-1.698270000000000000e+05
-1.743370000000000000e+05
-1.809660000000000000e+05
-1.812270000000000000e+05
-1.750790000000000000e+05
-1.697640000000000000e+05
-1.741640000000000000e+05
-1.807870000000000000e+05
-1.811340000000000000e+05
-1.749570000000000000e+05
-1.697640000000000000e+05
-1.740860000000000000e+05
-1.807470000000000000e+05
-1.813510000000000000e+05
-1.753120000000000000e+05
-1.697510000000000000e+05
-1.738150000000000000e+05
-1.807640000000000000e+05
-1.816020000000000000e+05
-1.756270000000000000e+05
-1.701810000000000000e+05
-1.740460000000000000e+05
-1.807560000000000000e+05
-1.815810000000000000e+05
-1.756680000000000000e+05
-1.700830000000000000e+05
-1.740370000000000000e+05
-1.807080000000000000e+05
-1.816640000000000000e+05
-1.758570000000000000e+05
-1.701220000000000000e+05
-1.738670000000000000e+05
-1.807090000000000000e+05
-1.817910000000000000e+05
-1.761910000000000000e+05
-1.702820000000000000e+05
-1.738690000000000000e+05
-1.807820000000000000e+05
-1.818690000000000000e+05
-1.761200000000000000e+05
-1.703490000000000000e+05
-1.739440000000000000e+05
-1.808090000000000000e+05
-1.819750000000000000e+05
-1.764310000000000000e+05
-1.704320000000000000e+05
-1.735410000000000000e+05
-1.805280000000000000e+05
-1.820560000000000000e+05
-1.765680000000000000e+05
-1.705570000000000000e+05
-1.737620000000000000e+05
-1.806300000000000000e+05
-1.820450000000000000e+05
-1.766870000000000000e+05
-1.704490000000000000e+05
-1.735060000000000000e+05
-1.804380000000000000e+05
-1.821110000000000000e+05
-1.767640000000000000e+05
-1.705950000000000000e+05
-1.734510000000000000e+05
-1.803070000000000000e+05
-1.821490000000000000e+05
-1.769670000000000000e+05
-1.705950000000000000e+05
-1.731940000000000000e+05
-1.802410000000000000e+05
-1.822820000000000000e+05
-1.771960000000000000e+05
-1.708350000000000000e+05
-1.733590000000000000e+05
-1.801960000000000000e+05
-1.821120000000000000e+05
-1.772760000000000000e+05
-1.708460000000000000e+05
-1.731860000000000000e+05
-1.802860000000000000e+05
-1.825180000000000000e+05
-1.773900000000000000e+05
-1.707260000000000000e+05
-1.733720000000000000e+05
-1.803420000000000000e+05
-1.824740000000000000e+05
-1.776360000000000000e+05
-1.711020000000000000e+05
-1.731310000000000000e+05
-1.801690000000000000e+05
-1.824420000000000000e+05
-1.777340000000000000e+05
-1.711760000000000000e+05
-1.731440000000000000e+05
-1.800070000000000000e+05
-1.824290000000000000e+05
-1.779590000000000000e+05
-1.708380000000000000e+05
-1.724190000000000000e+05
-1.793160000000000000e+05
-1.817880000000000000e+05
-1.771790000000000000e+05
-1.702940000000000000e+05
-1.721610000000000000e+05
-1.797040000000000000e+05
-1.831320000000000000e+05
-1.793240000000000000e+05
-1.724680000000000000e+05
-1.737790000000000000e+05
-1.806130000000000000e+05
-1.831440000000000000e+05
-1.784820000000000000e+05
-1.715440000000000000e+05
-1.726420000000000000e+05
-1.796970000000000000e+05
-1.826780000000000000e+05
-1.782970000000000000e+05
-1.714840000000000000e+05
-1.726700000000000000e+05
-1.795780000000000000e+05
-1.826750000000000000e+05
-1.787730000000000000e+05
-1.716180000000000000e+05
-1.724940000000000000e+05
-1.794510000000000000e+05
-1.826020000000000000e+05
-1.785520000000000000e+05
-1.716880000000000000e+05
-1.725200000000000000e+05
-1.795870000000000000e+05
-1.828410000000000000e+05
-1.787430000000000000e+05
-1.717130000000000000e+05
-1.724310000000000000e+05
-1.794540000000000000e+05
-1.827570000000000000e+05
-1.788250000000000000e+05
-1.718820000000000000e+05
-1.723000000000000000e+05
-1.793300000000000000e+05
-1.828690000000000000e+05
-1.790920000000000000e+05
-1.719750000000000000e+05
-1.722920000000000000e+05
-1.793900000000000000e+05
-1.828980000000000000e+05
-1.792370000000000000e+05
-1.721500000000000000e+05
-1.720920000000000000e+05
-1.789390000000000000e+05
-1.829410000000000000e+05
-1.792810000000000000e+05
-1.722310000000000000e+05
-1.721560000000000000e+05
-1.788870000000000000e+05
-1.826750000000000000e+05
-1.793660000000000000e+05
-1.721150000000000000e+05
-1.719300000000000000e+05
-1.788590000000000000e+05
-1.826540000000000000e+05
-1.792140000000000000e+05
-1.720070000000000000e+05
-1.716240000000000000e+05
-1.787260000000000000e+05
-1.826070000000000000e+05
-1.792040000000000000e+05
-1.717720000000000000e+05
-1.713670000000000000e+05
-1.786120000000000000e+05
-1.828420000000000000e+05
-1.796710000000000000e+05
-1.723360000000000000e+05
-1.716070000000000000e+05
-1.785510000000000000e+05
-1.827170000000000000e+05
-1.795690000000000000e+05
-1.724310000000000000e+05
-1.716560000000000000e+05
-1.786170000000000000e+05
-1.827680000000000000e+05
-1.797370000000000000e+05
-1.725200000000000000e+05
-1.714960000000000000e+05
-1.781850000000000000e+05
-1.825160000000000000e+05
-1.798190000000000000e+05
-1.727030000000000000e+05
-1.713250000000000000e+05
-1.781750000000000000e+05
-1.827170000000000000e+05
-1.799320000000000000e+05
-1.728120000000000000e+05
-1.714760000000000000e+05
-1.782250000000000000e+05
-1.827060000000000000e+05
-1.798020000000000000e+05
-1.728960000000000000e+05
-1.715280000000000000e+05
-1.781060000000000000e+05
-1.826000000000000000e+05
-1.801210000000000000e+05
-1.731020000000000000e+05
-1.714860000000000000e+05
-1.780510000000000000e+05
-1.826490000000000000e+05
-1.802180000000000000e+05
-1.733030000000000000e+05
-1.714930000000000000e+05
-1.780600000000000000e+05
-1.827270000000000000e+05
-1.803270000000000000e+05
-1.732350000000000000e+05
-1.712840000000000000e+05
-1.775970000000000000e+05
-1.823890000000000000e+05
-1.804790000000000000e+05
-1.734570000000000000e+05
-1.711820000000000000e+05
-1.777480000000000000e+05
-1.827670000000000000e+05
-1.807010000000000000e+05
-1.737290000000000000e+05
-1.713510000000000000e+05
-1.776110000000000000e+05
-1.826790000000000000e+05
-1.806620000000000000e+05
-1.737160000000000000e+05
-1.713240000000000000e+05
-1.776110000000000000e+05
-1.825770000000000000e+05
-1.805610000000000000e+05
-1.738240000000000000e+05
-1.713020000000000000e+05
-1.774150000000000000e+05
-1.827850000000000000e+05
-1.809120000000000000e+05
-1.738740000000000000e+05
-1.711050000000000000e+05
-1.772990000000000000e+05
-1.826020000000000000e+05
-1.808260000000000000e+05
-1.737870000000000000e+05
-1.710830000000000000e+05
-1.770260000000000000e+05
-1.825640000000000000e+05
-1.812590000000000000e+05
-1.742220000000000000e+05
-1.710210000000000000e+05
-1.770770000000000000e+05
-1.825070000000000000e+05
-1.808140000000000000e+05
-1.736900000000000000e+05
-1.702370000000000000e+05
-1.760170000000000000e+05
-1.813810000000000000e+05
-1.801810000000000000e+05
-1.738290000000000000e+05
-1.710870000000000000e+05
-1.775670000000000000e+05
-1.835150000000000000e+05
-1.823040000000000000e+05
-1.753790000000000000e+05
-1.714830000000000000e+05
-1.768870000000000000e+05
-1.824870000000000000e+05
-1.815040000000000000e+05
-1.746000000000000000e+05
-1.707800000000000000e+05
-1.764210000000000000e+05
-1.822330000000000000e+05
-1.813010000000000000e+05
-1.745990000000000000e+05
-1.707590000000000000e+05
-1.764030000000000000e+05
-1.822560000000000000e+05
-1.814070000000000000e+05
-1.743970000000000000e+05
-1.705970000000000000e+05
-1.763130000000000000e+05
-1.818660000000000000e+05
-1.809870000000000000e+05
-1.746450000000000000e+05
-1.706920000000000000e+05
-1.760190000000000000e+05
-1.818720000000000000e+05
-1.812150000000000000e+05
-1.746840000000000000e+05
-1.705480000000000000e+05
-1.759460000000000000e+05
-1.819300000000000000e+05
-1.813260000000000000e+05
-1.745740000000000000e+05
-1.703170000000000000e+05
-1.757140000000000000e+05
-1.818000000000000000e+05
-1.814820000000000000e+05
-1.748620000000000000e+05
-1.703290000000000000e+05
-1.754920000000000000e+05
-1.817640000000000000e+05
-1.814170000000000000e+05
-1.750440000000000000e+05
-1.703440000000000000e+05
-1.753320000000000000e+05
-1.814240000000000000e+05
-1.812530000000000000e+05
-1.752000000000000000e+05
-1.704160000000000000e+05
-1.751680000000000000e+05
-1.815750000000000000e+05
-1.814720000000000000e+05
-1.752200000000000000e+05
-1.702280000000000000e+05
-1.749940000000000000e+05
-1.813720000000000000e+05
-1.815630000000000000e+05
-1.753270000000000000e+05
-1.703240000000000000e+05
-1.750090000000000000e+05
-1.813760000000000000e+05
-1.816070000000000000e+05
-1.754660000000000000e+05
-1.703160000000000000e+05
-1.747370000000000000e+05
-1.813210000000000000e+05
-1.816760000000000000e+05
-1.755370000000000000e+05
-1.704160000000000000e+05
-1.748610000000000000e+05
-1.812410000000000000e+05
-1.817190000000000000e+05
-1.758630000000000000e+05
-1.705240000000000000e+05
-1.747070000000000000e+05
-1.812160000000000000e+05
-1.817200000000000000e+05
-1.756590000000000000e+05
-1.703170000000000000e+05
-1.745870000000000000e+05
-1.811440000000000000e+05
-1.817440000000000000e+05
-1.759250000000000000e+05
-1.703650000000000000e+05
-1.742490000000000000e+05
-1.809190000000000000e+05
-1.814770000000000000e+05
-1.756950000000000000e+05
-1.700990000000000000e+05
-1.740260000000000000e+05
-1.809070000000000000e+05
-1.819300000000000000e+05
-1.760560000000000000e+05
-1.702610000000000000e+05
-1.738910000000000000e+05
-1.806670000000000000e+05
-1.817090000000000000e+05
-1.760930000000000000e+05
-1.702020000000000000e+05
-1.738240000000000000e+05
-1.806490000000000000e+05
-1.818110000000000000e+05
-1.760440000000000000e+05
-1.701060000000000000e+05
-1.737110000000000000e+05
-1.803920000000000000e+05
-1.817650000000000000e+05
-1.761770000000000000e+05
-1.702050000000000000e+05
-1.736370000000000000e+05
-1.803840000000000000e+05
-1.816760000000000000e+05
-1.761590000000000000e+05
-1.701590000000000000e+05
-1.733670000000000000e+05
-1.802810000000000000e+05
-1.817760000000000000e+05
-1.763200000000000000e+05
-1.702060000000000000e+05
-1.733110000000000000e+05
-1.800540000000000000e+05
-1.815660000000000000e+05
-1.762690000000000000e+05
-1.703490000000000000e+05
-1.733520000000000000e+05
-1.801460000000000000e+05
-1.817970000000000000e+05
-1.765670000000000000e+05
-1.699830000000000000e+05
-1.719170000000000000e+05
-1.778210000000000000e+05
-1.791070000000000000e+05
-1.745790000000000000e+05
-1.678840000000000000e+05
-1.667740000000000000e+05
-1.708790000000000000e+05
-1.767800000000000000e+05
-1.773190000000000000e+05
-1.730010000000000000e+05
-1.740690000000000000e+05
-1.793920000000000000e+05
-1.825840000000000000e+05
-1.794760000000000000e+05
-1.726610000000000000e+05
-1.741080000000000000e+05
-1.806940000000000000e+05
-1.821270000000000000e+05
-1.769220000000000000e+05
-1.698990000000000000e+05
-1.716620000000000000e+05
-1.785810000000000000e+05
-1.813300000000000000e+05
-1.770470000000000000e+05
-1.710420000000000000e+05
-1.735780000000000000e+05
-1.805540000000000000e+05
-1.826720000000000000e+05
-1.776770000000000000e+05
-1.710170000000000000e+05
-1.725570000000000000e+05
-1.792190000000000000e+05
-1.812840000000000000e+05
-1.747260000000000000e+05
-1.653490000000000000e+05
-1.676960000000000000e+05
-1.754380000000000000e+05
-1.759350000000000000e+05
-1.697130000000000000e+05
-1.625000000000000000e+05
-1.649510000000000000e+05
-1.747090000000000000e+05
-1.777240000000000000e+05
-1.707640000000000000e+05
-1.594650000000000000e+05
-1.632940000000000000e+05
-1.751270000000000000e+05
-1.806770000000000000e+05
-1.785790000000000000e+05
-1.665040000000000000e+05
-1.642860000000000000e+05
-1.683620000000000000e+05
-1.711460000000000000e+05
-1.661910000000000000e+05
-1.614830000000000000e+05
-1.631730000000000000e+05
-1.663410000000000000e+05
-1.605160000000000000e+05
-1.572720000000000000e+05
-1.580770000000000000e+05
-1.587110000000000000e+05
-1.592950000000000000e+05
-1.571950000000000000e+05
-1.566510000000000000e+05
-1.528220000000000000e+05
-1.596010000000000000e+05
-1.647720000000000000e+05
-1.662940000000000000e+05
-1.563920000000000000e+05
-1.415220000000000000e+05
-1.421870000000000000e+05
-1.468410000000000000e+05
-1.540130000000000000e+05
-1.548300000000000000e+05
-1.490840000000000000e+05
-1.359630000000000000e+05
-1.350760000000000000e+05
-1.459060000000000000e+05
-1.659380000000000000e+05
-1.593810000000000000e+05
-1.504130000000000000e+05
-1.497940000000000000e+05
-1.497020000000000000e+05
-1.513860000000000000e+05
-1.478920000000000000e+05
-1.418870000000000000e+05
-1.373520000000000000e+05
-1.515380000000000000e+05
-1.530230000000000000e+05
-1.450070000000000000e+05
-1.457510000000000000e+05
-1.464190000000000000e+05
-1.504260000000000000e+05
-1.460390000000000000e+05
-1.378700000000000000e+05
-1.444840000000000000e+05
-1.566620000000000000e+05
-1.548740000000000000e+05
-1.514190000000000000e+05
-1.421690000000000000e+05
-1.387640000000000000e+05
-1.485190000000000000e+05
-1.527290000000000000e+05
-1.496170000000000000e+05
-1.476490000000000000e+05
-1.464660000000000000e+05
-1.424320000000000000e+05
-1.428440000000000000e+05
-1.446220000000000000e+05
-1.499160000000000000e+05
-1.500300000000000000e+05
-1.491170000000000000e+05
-1.562880000000000000e+05
-1.505960000000000000e+05
-1.446330000000000000e+05
-1.523140000000000000e+05
-1.583140000000000000e+05
-1.594360000000000000e+05
-1.555660000000000000e+05
-1.434940000000000000e+05
-1.352320000000000000e+05
-1.526200000000000000e+05
-1.525190000000000000e+05
-1.407060000000000000e+05
-1.454570000000000000e+05
-1.515090000000000000e+05
-1.482480000000000000e+05
-1.582590000000000000e+05
-1.545240000000000000e+05
-1.491490000000000000e+05
-1.523220000000000000e+05
-1.545030000000000000e+05
-1.531340000000000000e+05
-1.490300000000000000e+05
-1.423340000000000000e+05
-1.375750000000000000e+05
-1.428440000000000000e+05
-1.615960000000000000e+05
-1.583420000000000000e+05
-1.465270000000000000e+05
-1.475410000000000000e+05
-1.546540000000000000e+05
-1.520110000000000000e+05
-1.517270000000000000e+05
-1.518190000000000000e+05
-1.354320000000000000e+05
-1.395100000000000000e+05
-1.618640000000000000e+05
-1.609660000000000000e+05
-1.515570000000000000e+05
-1.462260000000000000e+05
-1.476020000000000000e+05
-1.579840000000000000e+05
-1.584270000000000000e+05
-1.471740000000000000e+05
-1.373930000000000000e+05
-1.540080000000000000e+05
-1.519010000000000000e+05
-1.398770000000000000e+05
-1.428440000000000000e+05
-1.485160000000000000e+05
-1.551170000000000000e+05
-1.535260000000000000e+05
-1.537440000000000000e+05
-1.499970000000000000e+05
-1.485510000000000000e+05
-1.522970000000000000e+05
-1.525190000000000000e+05
-1.517850000000000000e+05
-1.481890000000000000e+05
-1.418410000000000000e+05
-1.414440000000000000e+05
-1.547940000000000000e+05
-1.620200000000000000e+05
-1.478860000000000000e+05
-1.322470000000000000e+05
-1.454280000000000000e+05
-1.602660000000000000e+05
-1.631050000000000000e+05
-1.472530000000000000e+05
-1.428030000000000000e+05
-1.500950000000000000e+05
-1.546360000000000000e+05
-1.581660000000000000e+05
-1.535780000000000000e+05
-1.488710000000000000e+05
-1.500220000000000000e+05
-1.519500000000000000e+05
-1.505370000000000000e+05
-1.494060000000000000e+05
-1.445060000000000000e+05
-1.519630000000000000e+05
-1.575670000000000000e+05
-1.542270000000000000e+05
-1.478670000000000000e+05
-1.468910000000000000e+05
-1.498090000000000000e+05
-1.561970000000000000e+05
-1.466740000000000000e+05
-1.361320000000000000e+05
-1.482240000000000000e+05
-1.550410000000000000e+05
-1.616180000000000000e+05
-1.554280000000000000e+05
-1.472340000000000000e+05
-1.516240000000000000e+05
-1.532260000000000000e+05
-1.564710000000000000e+05
-1.553460000000000000e+05
-1.467680000000000000e+05
-1.474470000000000000e+05
-1.532520000000000000e+05
-1.561860000000000000e+05
-1.545590000000000000e+05
-1.477870000000000000e+05
-1.451790000000000000e+05
-1.505870000000000000e+05
-1.557340000000000000e+05
-1.536620000000000000e+05
-1.453750000000000000e+05
-1.494630000000000000e+05
-1.563570000000000000e+05
-1.542320000000000000e+05
-1.566290000000000000e+05
-1.517500000000000000e+05
-1.456440000000000000e+05
-1.440630000000000000e+05
-1.514880000000000000e+05
-1.601430000000000000e+05
-1.541920000000000000e+05
-1.455390000000000000e+05
-1.478450000000000000e+05
-1.548910000000000000e+05
-1.607910000000000000e+05
-1.526960000000000000e+05
-1.368060000000000000e+05
-1.442740000000000000e+05
-1.615350000000000000e+05
-1.644270000000000000e+05
-1.538290000000000000e+05
-1.496460000000000000e+05
-1.515110000000000000e+05
-1.529750000000000000e+05
-1.528310000000000000e+05
-1.473360000000000000e+05
-1.439070000000000000e+05
-1.515820000000000000e+05
-1.568210000000000000e+05
-1.592750000000000000e+05
-1.562590000000000000e+05
-1.475940000000000000e+05
-1.497840000000000000e+05
-1.540170000000000000e+05
-1.548520000000000000e+05
-1.520840000000000000e+05
-1.401810000000000000e+05
-1.446760000000000000e+05
-1.648710000000000000e+05
-1.559560000000000000e+05
-1.501840000000000000e+05
-1.509810000000000000e+05
-1.546970000000000000e+05
-1.575030000000000000e+05
-1.550460000000000000e+05
-1.498410000000000000e+05
-1.443440000000000000e+05
-1.487440000000000000e+05
-1.506860000000000000e+05
-1.478670000000000000e+05
-1.584020000000000000e+05
-1.568410000000000000e+05
-1.511520000000000000e+05
-1.568070000000000000e+05
-1.523020000000000000e+05
-1.485050000000000000e+05
-1.384100000000000000e+05
-1.522840000000000000e+05
-1.643960000000000000e+05
-1.605120000000000000e+05
-1.411590000000000000e+05
-1.414340000000000000e+05
-1.512550000000000000e+05
-1.595290000000000000e+05
-1.554300000000000000e+05
-1.487350000000000000e+05
-1.401410000000000000e+05
-1.433130000000000000e+05
-1.567780000000000000e+05
-1.571400000000000000e+05
-1.533610000000000000e+05
-1.536310000000000000e+05
-1.493340000000000000e+05
-1.509620000000000000e+05
-1.559740000000000000e+05
-1.564040000000000000e+05
-1.491490000000000000e+05
-1.476120000000000000e+05
-1.540080000000000000e+05
-1.584570000000000000e+05
-1.513610000000000000e+05
-1.450620000000000000e+05
-1.432310000000000000e+05
-1.472460000000000000e+05
-1.619040000000000000e+05
-1.542620000000000000e+05
-1.447210000000000000e+05
-1.494380000000000000e+05
-1.555320000000000000e+05
-1.590510000000000000e+05
-1.443920000000000000e+05
-1.438110000000000000e+05
-1.529140000000000000e+05
-1.520010000000000000e+05
-1.497890000000000000e+05
-1.584510000000000000e+05
-1.499930000000000000e+05
-1.503310000000000000e+05
-1.517330000000000000e+05
-1.549560000000000000e+05
-1.518440000000000000e+05
-1.415440000000000000e+05
-1.476630000000000000e+05
-1.564720000000000000e+05
-1.603310000000000000e+05
-1.548590000000000000e+05
-1.482230000000000000e+05
-1.496650000000000000e+05
-1.520110000000000000e+05
-1.515800000000000000e+05
-1.478770000000000000e+05
-1.482300000000000000e+05
-1.483160000000000000e+05
-1.499380000000000000e+05
-1.572960000000000000e+05
-1.576850000000000000e+05
-1.481840000000000000e+05
-1.442690000000000000e+05
-1.498540000000000000e+05
-1.592340000000000000e+05
-1.501010000000000000e+05
-1.403330000000000000e+05
-1.500380000000000000e+05
-1.613140000000000000e+05
-1.574900000000000000e+05
-1.572090000000000000e+05
-1.518590000000000000e+05
-1.488080000000000000e+05
-1.529170000000000000e+05
-1.525770000000000000e+05
-1.521620000000000000e+05
-1.439070000000000000e+05
-1.460070000000000000e+05
-1.538270000000000000e+05
-1.586620000000000000e+05
-1.560670000000000000e+05
-1.410810000000000000e+05
-1.444620000000000000e+05
-1.555070000000000000e+05
-1.597800000000000000e+05
-1.573510000000000000e+05
-1.496940000000000000e+05
-1.425450000000000000e+05
-1.540620000000000000e+05
-1.560890000000000000e+05
-1.504840000000000000e+05
-1.463730000000000000e+05
-1.489480000000000000e+05
-1.531260000000000000e+05
-1.570690000000000000e+05
-1.508440000000000000e+05
-1.493920000000000000e+05
-1.517190000000000000e+05
-1.535270000000000000e+05
-1.561290000000000000e+05
-1.492610000000000000e+05
-1.475140000000000000e+05
-1.480450000000000000e+05
-1.589470000000000000e+05
-1.579820000000000000e+05
-1.489070000000000000e+05
-1.450040000000000000e+05
-1.487980000000000000e+05
-1.551650000000000000e+05
-1.589830000000000000e+05
-1.531820000000000000e+05
-1.442910000000000000e+05
-1.510520000000000000e+05
-1.598820000000000000e+05
-1.587980000000000000e+05
-1.499460000000000000e+05
-1.404890000000000000e+05
-1.448090000000000000e+05
-1.518870000000000000e+05
-1.600360000000000000e+05
-1.551640000000000000e+05
-1.433640000000000000e+05
-1.414870000000000000e+05
-1.548420000000000000e+05
-1.596250000000000000e+05
-1.532720000000000000e+05
-1.456460000000000000e+05
-1.503950000000000000e+05
-1.594820000000000000e+05
-1.610310000000000000e+05
-1.510080000000000000e+05
-1.435410000000000000e+05
-1.510890000000000000e+05
-1.527570000000000000e+05
-1.420640000000000000e+05
-1.509120000000000000e+05
-1.540830000000000000e+05
-1.494360000000000000e+05
-1.552900000000000000e+05
-1.602590000000000000e+05
-1.512590000000000000e+05
-1.453570000000000000e+05
-1.454620000000000000e+05
-1.518980000000000000e+05
-1.533410000000000000e+05
-1.564640000000000000e+05
-1.508210000000000000e+05
-1.455310000000000000e+05
-1.535760000000000000e+05
-1.592360000000000000e+05
-1.543510000000000000e+05
-1.415970000000000000e+05
-1.402790000000000000e+05
-1.559870000000000000e+05
-1.589520000000000000e+05
-1.575960000000000000e+05
-1.478870000000000000e+05
-1.414680000000000000e+05
-1.547610000000000000e+05
-1.579660000000000000e+05
-1.506340000000000000e+05
-1.474450000000000000e+05
-1.493340000000000000e+05
-1.521490000000000000e+05
-1.575350000000000000e+05
-1.547670000000000000e+05
-1.447020000000000000e+05
-1.484470000000000000e+05
-1.565260000000000000e+05
-1.575040000000000000e+05
-1.538270000000000000e+05
-1.465830000000000000e+05
-1.473840000000000000e+05
-1.524610000000000000e+05
-1.537570000000000000e+05
-1.524730000000000000e+05
-1.386540000000000000e+05
-1.458390000000000000e+05
-1.568300000000000000e+05
-1.586940000000000000e+05
-1.575440000000000000e+05
-1.491140000000000000e+05
-1.394220000000000000e+05
-1.464940000000000000e+05
-1.586330000000000000e+05
-1.566120000000000000e+05
-1.451420000000000000e+05
-1.404660000000000000e+05
-1.552370000000000000e+05
-1.635520000000000000e+05
-1.560410000000000000e+05
-1.462560000000000000e+05
-1.461550000000000000e+05
-1.564620000000000000e+05
-1.586510000000000000e+05
-1.504180000000000000e+05
-1.386060000000000000e+05
-1.384970000000000000e+05
-1.574340000000000000e+05
-1.638110000000000000e+05
-1.580740000000000000e+05
-1.485230000000000000e+05
-1.435260000000000000e+05
-1.476830000000000000e+05
-1.541670000000000000e+05
-1.504740000000000000e+05
-1.428870000000000000e+05
-1.432060000000000000e+05
-1.543680000000000000e+05
-1.616670000000000000e+05
-1.544260000000000000e+05
-1.422520000000000000e+05
-1.424410000000000000e+05
-1.476690000000000000e+05
-1.491460000000000000e+05
-1.554460000000000000e+05
-1.594540000000000000e+05
-1.502150000000000000e+05
-1.497770000000000000e+05
-1.568780000000000000e+05
-1.526090000000000000e+05
-1.470590000000000000e+05
-1.462100000000000000e+05
-1.497270000000000000e+05
-1.533240000000000000e+05
-1.553340000000000000e+05
-1.514390000000000000e+05
-1.457090000000000000e+05
-1.479970000000000000e+05
-1.514300000000000000e+05
-1.530710000000000000e+05
-1.494990000000000000e+05
-1.429190000000000000e+05
-1.479210000000000000e+05
-1.517500000000000000e+05
-1.556440000000000000e+05
-1.553620000000000000e+05
-1.491210000000000000e+05
-1.484820000000000000e+05
-1.537990000000000000e+05
-1.493560000000000000e+05
-1.483830000000000000e+05
-1.486910000000000000e+05
-1.526120000000000000e+05
-1.551200000000000000e+05
-1.547010000000000000e+05
-1.459670000000000000e+05
-1.465970000000000000e+05
-1.529780000000000000e+05
-1.545230000000000000e+05
-1.562880000000000000e+05
-1.485110000000000000e+05
-1.402190000000000000e+05
-1.463820000000000000e+05
-1.596110000000000000e+05
-1.588070000000000000e+05
-1.493310000000000000e+05
-1.426820000000000000e+05
