4.121717691815223930e+02
1.057313127440911103e+03
1.691764991920926605e+03
2.959452446667518416e+03
1.970789048072560036e+03
-4.830334328825962871e+02
-1.068824185181480516e+03
-3.816315811710213097e+02
-2.786229697074735441e+02
-3.855429343899291439e+02
-4.152221159906569596e+02
-5.494157064212852219e+02
-5.252776957343113509e+02
-4.693993815251007504e+02
-2.516103123204222811e+02
4.727632818144743396e+02
7.657052306922215621e+02
7.582909254114537134e+01
-3.905195180191489612e+02
-3.925027712980102734e+01
4.460196762903141234e+02
6.196593406458672462e+02
3.892065035942856071e+02
5.713738041523777156e+01
3.238514365489960412e+00
-2.013773592732696898e+02
-5.349702997164422413e+02
-1.601274035395440478e+02
3.705483149935124061e+02
8.180276607310691617e+00
-5.559169025742626218e+02
-5.336526543402419520e+02
-1.946651648600339684e+02
1.999058297579053374e+02
2.213048287599553987e+02
-1.205533192127366959e+02
9.058842348627220531e+01
4.017360934354566098e+02
-1.145423882277652012e+02
-7.526128072208202013e+01
1.004499723808192698e+03
9.672424513366066776e+02
-1.421888375739834203e+02
-3.247156199347884922e+02
-1.373177846195446250e+02
-6.381736526055143486e+02
-9.534286138840774356e+02
-8.166699077827381643e+02
-6.477364475398348986e+02
-2.135527427839475649e+02
2.680360603370309036e+02
6.973971353933060300e+02
1.472065021817345269e+03
1.630759632203864385e+03
4.847487181727009329e+02
-4.852904442409083003e+02
-6.594255108373074563e+02
-8.637102543443406830e+02
-7.307408765524490946e+02
-4.278801880796050483e+01
2.073925517016223523e+02
2.545743699660052783e+01
-1.562190462721030713e+02
-5.454586449803439336e+02
-4.981631436590971589e+02
3.182397665131715030e+02
6.632580696980527364e+02
4.362097674356238599e+02
5.955470463218284749e+02
5.236196318671284189e+02
-2.183384420134398454e+02
-5.153378740452743614e+02
-2.512349911032500245e+02
-2.295124684626736666e+02
-2.097941926561585717e+02
1.047591486977131296e+02
3.137278752436968148e+02
2.669360743655543615e+02
3.855964010341100590e+01
-2.492502735757457231e+02
-3.800587441934958974e+02
-4.342053721448679653e+02
-3.353526462480558621e+02
1.800014148960120508e+02
5.445661921684079516e+02
3.050408125633317127e+02
1.483268428843420281e+02
1.967664987193829234e+02
-1.358883000629287494e+02
-3.334689739052488449e+02
8.702738317205903229e+01
2.764552716505721150e+02
-2.641963224710345415e+01
-7.305748242233740086e+01
6.478368165753549590e+01
-8.780869874982499823e+01
-2.108085494561672419e+02
-5.164538306946271717e+01
1.675819566733871113e+00
-1.691594031383475567e+02
-1.595520312566858081e+02
9.121136754585573669e+01
1.383145661239551600e+02
-7.598456575977836636e+00
8.340971587508813911e+01
1.508896878202163805e+02
-1.389950392194480173e+02
-1.441836669462064719e+02
3.038639768209210956e+02
3.258853995929343341e+02
2.146129123335782651e+00
5.703140035383080431e+01
2.532465861140243035e+01
-4.000401718063385488e+02
-3.873834180868138333e+02
3.121911162298641074e+01
6.216145916848982012e+01
-1.328050423917092893e+01
1.771042375094015711e+02
1.399883463565774093e+02
-9.321783601501228134e+01
-2.125261643476954632e+01
1.129151642934367175e+02
1.522786493064303359e+00
-1.009782773044915274e+02
-1.245538210035333151e+02
-1.608903713387203140e+02
-5.982843008302700127e+01
1.213857705371611786e+02
1.580900670464455118e+02
1.899534452909042557e+02
2.407575192013565584e+02
5.400473240966023880e+00
-3.029758307346261859e+02
-1.609847212746534240e+02
1.902823664398465553e+02
1.896773436832465336e+02
-7.871413657119322949e+00
-2.647808618839916051e+01
-7.786050110651781608e+01
-4.147980424756494244e+02
-6.083866370318653480e+02
-1.943164465297807055e+02
3.704405214401148214e+02
4.015201616761877972e+02
2.086401471636255849e+02
3.321101793926640653e+02
3.920538440219671088e+02
7.311792655752583414e+01
-1.402221628409565710e+02
-1.159392999646272528e+02
-2.472514677549993962e+02
-4.746804397504123472e+02
-5.148079348513792866e+02
-2.949315339804014684e+02
1.895464006446046028e+02
5.645882493572435123e+02
4.121374041004903006e+02
1.037922266013661812e+02
2.490075378223146174e+01
-1.033483826267991788e+02
-2.525580286399662668e+02
-7.008961721878691264e+01
2.118323201328571486e+02
2.283903463411861594e+02
8.044512935384727825e+01
-2.241423208248016508e+01
-1.021811739047729617e+01
-1.432710819730865559e+01
-1.902449878452982546e+02
-3.626072125650549083e+02
-3.733742281841266504e+02
-3.069699048189078781e+02
-1.101111717644559178e+02
1.509256149251671957e+02
2.197174055176306524e+02
2.118747673592567082e+02
2.273778566288867751e+02
1.644336651417973769e+02
2.825234638691603664e+02
4.989406706727698975e+02
2.730702395134021003e+02
-6.330908217478635436e+01
-7.568043505208422062e+01
-1.855192255443832039e+02
-2.615749662919959633e+02
2.363280844980886641e+01
4.614788845266249773e+00
-4.115452460416641998e+02
-6.283506808768245264e+02
-7.751332961486441491e+02
-6.280253812513597040e+02
7.014034762377957577e+01
2.434651196408443070e+02
-9.729908050191654922e+01
3.304349395858890261e+02
8.362170217645945058e+02
5.674173645584024825e+02
6.277327200105594329e+02
1.025994357198753960e+03
7.433601802290733076e+02
1.699755838257668756e+02
-2.556374961641804475e+02
-3.962686014294149004e+02
-2.204940271494129433e+01
-2.871998833633712138e+02
-1.442534801035839109e+03
-1.489825866813202083e+03
-6.570168617128696269e+02
-6.241714854910680970e+02
-5.205952677452702346e+02
1.919018354722702568e+01
-9.358702939941348831e+00
1.316863969268581798e+02
4.792449347611989765e+02
3.498331530665629998e+02
1.267516193980351318e+03
2.493221091369581245e+03
1.328331062404947943e+03
8.661067635124999242e+01
1.102978811423857906e+03
1.481561327095766728e+03
3.666276635789765805e+02
-5.807051022579001938e+02
-1.880210538831191343e+03
-2.722351736483876721e+03
-2.193530824320785086e+03
-2.330510969913613735e+03
-2.252635782033928081e+03
-4.394116109055149195e+02
-3.244471419202192806e+02
-1.892988112748013009e+03
-7.780421400408729369e+02
2.089729257976995541e+03
4.106242669046582705e+03
4.783574854574080746e+03
2.833875167597296240e+03
1.281038505802069949e+03
3.350906506215391801e+03
3.503939815109278697e+03
6.228366614719204790e+02
7.373666976235917900e+02
-1.063858719339788905e+02
-5.740331517464519493e+03
-8.536584201614603444e+03
-7.516054418327990788e+03
-6.295572553680922283e+03
-2.953533889184285727e+03
-4.181011252417979449e+03
-1.053292963151430013e+04
-2.582727363588101525e+03
1.488251471512729586e+04
1.727177806385233998e+04
1.790315269867068491e+04
2.910722358240087851e+04
1.793427180295921062e+04
-1.611079858443854391e+04
-2.702822846080151430e+04
-1.748344273153344693e+04
-1.906457251444479334e+04
-1.650091179225825181e+04
2.482701110918465474e+03
1.066068379903007917e+04
3.480257442203386745e+03
1.873378526255562065e+03
5.440961540696216616e+03
6.886514639746848843e+03
8.038489402534300098e+03
5.870066986990169426e+03
1.355249769013372088e+03
7.508192887404824205e+02
-1.947124544493580061e+02
-3.670075044192447422e+03
-2.956198503409408204e+03
-6.800267526247605474e+02
-2.717366314884885014e+03
-4.778508305338213177e+03
-4.064349645234119635e+03
-2.450632179857128449e+03
1.440672933125921702e+02
1.297569723382092889e+03
-3.040848217841655128e+02
-1.117913428418165012e+01
2.132533954290036490e+03
2.097318699033200573e+03
1.921465601135255156e+03
3.073415329646184091e+03
2.600862262954732614e+03
9.755687761323905534e+02
-1.655046389894487646e+01
-7.788330572139113883e+02
-5.239156916363604068e+02
-2.863538439388805479e+00
-1.494526190962014880e+03
-2.801576858210856699e+03
-1.810363339977845953e+03
-9.599479049540640290e+02
-9.113248224071095365e+02
-3.311135226049337348e+02
3.464710159193710837e+00
6.944444405783276864e+01
5.779633429494240318e+02
6.878574526152441422e+02
8.665311686496928587e+02
1.768082910443257788e+03
1.557181534177276035e+03
2.388654053824312484e+02
-1.734291816086739146e+01
3.742772158714671491e+02
2.545032492066837051e+02
1.225774859357198210e+00
-4.923872576200694766e+02
-1.008740284478389867e+03
-7.952771441207521548e+02
-6.484356059582718217e+02
-8.821967486897498247e+02
-4.408379673619094774e+02
8.912643155607250378e+01
-1.922692500407434579e+02
-2.965712760406513553e+02
1.746408242546392273e+02
5.548632962000592670e+02
7.650633925396615496e+02
6.160057718191249023e+02
1.621329591837385067e+02
2.191360807793558649e+02
4.978588772299308403e+02
2.300721573796344330e+02
-1.925161734889537257e+01
2.173417988925385202e+01
-1.967768462972660473e+02
-4.352327251229663716e+02
-3.906013213727944162e+02
-3.204379787284368035e+02
-1.573848253160360855e+02
-5.637572876334796490e+01
-3.335826506796666422e+02
-4.080605547982899566e+02
-2.062269201468942548e+00
2.056751809082382465e+02
1.606779503201792636e+02
2.379865768824818133e+02
2.505848026036668728e+02
1.835859574859434815e+02
2.129211584126214802e+02
1.646964639377988533e+02
1.008460642878214770e+02
1.566696322762388149e+02
3.919585220411677540e+01
-2.071857861438513737e+02
-2.135571347865067082e+02
-1.193179786283683370e+02
-1.530469577176291409e+02
-2.061386625541414048e+02
-2.060753889896379292e+02
-1.018009150766669251e+02
8.272422194492492054e+01
1.195713980819178204e+02
4.944155679211644383e+01
8.727047491938388646e+01
9.381506819717574785e+01
-7.729164637399297710e+00
6.690046578458339610e-01
8.701111708339253425e+01
8.170393826283267913e+01
3.302599654924637207e+01
-2.554903752459717126e+01
-7.529292304280126302e+01
-2.341844195543741236e+01
4.472658963344362348e+01
8.176583717694304809e+00
-3.720654017151678516e+01
-3.865763005730486412e+01
-5.929102574904015910e+01
-6.985487211018788400e+01
-3.682421949526789007e+01
2.606654110351345643e+00
2.609031264099880332e+01
8.360006941538799197e+00
-2.632207305325761126e+01
4.734727133814148559e+00
6.411018530401454996e+01
6.191734366544061885e+01
3.538534459586514913e+01
2.138892248998706336e+01
-1.332534443537942792e+01
-4.531979678024810454e+01
-4.381351184693948397e+01
-2.508881020503429227e+01
-9.764874734038194504e+00
-1.253518679120767310e+00
9.281534024112199077e-01
-3.460123633446887226e+00
-1.031359179779647306e+01
-2.729651212084371004e+00
2.108533296894928100e+01
3.313989286774990717e+01
2.735500787827417923e+01
1.231513638628835849e+01
-3.102466221425688175e+01
-8.515367499938899698e+01
-9.224605888544749632e+01
-6.093742945769956521e+01
-1.813539255702164610e+01
6.129685266331893700e+01
1.379894782388249439e+02
1.273433415674468279e+02
5.575872996894869971e+01
-2.037843341331457481e+01
-1.025030091618526740e+02
-1.447406121842671496e+02
-1.025009342638451102e+02
-3.697621767432558215e+01
5.906066605245436030e+00
3.948256831911121623e+01
4.521943001311885268e+01
2.965537387820432258e+01
3.632947256357866195e+01
4.265484419348450018e+01
2.800365308487020854e+01
2.388300957374158884e+01
8.078654739589818945e+00
-3.743044827193923396e+01
-4.957373159797334949e+01
-2.972925169034274262e+01
-4.768688879395394764e+01
-8.264099884020779996e+01
-8.672535084290112195e+01
-7.778561202571071931e+01
-4.827053925804207779e+01
2.625789077654761527e+01
1.031906884961607176e+02
1.385593044143029147e+02
1.410513556388822280e+02
1.237701840245296268e+02
9.423091111796172470e+01
6.257253135276460654e+01
1.225665575857721379e+01
-9.697818450894249054e+01
-2.554963668385032634e+02
-3.599521179963985560e+02
-3.255020822494070671e+02
-1.904324544003030724e+02
1.591642472996865898e+00
2.475740112199635519e+02
4.162490084055988859e+02
3.580884082144473268e+02
1.810329949574318107e+02
5.270242242164861324e+01
-5.904765642484506571e+01
-1.669536918755914030e+02
-1.758900929450589103e+02
-1.212552425201148480e+02
-1.045050270314375069e+02
-9.744302309907789095e+01
-5.784098105977188453e+01
-9.318028130449214075e+00
3.458313667986635664e+01
4.635127688916480082e+01
1.514970668620344441e+01
9.564859916190087574e+00
4.500921292060739631e+01
5.190178799861561743e+01
3.718011092427292397e+01
4.400000818862122287e+01
3.379053259708704360e+01
-1.344503609674227462e+01
-4.423706933155779097e+01
-3.001483992787196087e+01
7.204454488740970497e+00
1.985772073056959641e+01
-2.267886381698092535e+01
-7.126521199881365476e+01
-7.841667321640358068e+01
-7.895491380818245375e+01
-6.781666641681215424e+01
4.707412078889309903e+00
7.630029135207477964e+01
6.825539733016368871e+01
3.663123517784955396e+01
2.650937141749509962e+01
1.703062532533889062e+00
-1.559978827507885768e+01
8.662531348511011586e+00
2.197665737992157986e+01
4.327089267473312795e+00
2.840682689085456403e-01
-3.262919969238624596e+00
-3.807042081351377050e+01
-6.318145567717466093e+01
-4.560587639266991289e+01
-2.451401120665510192e+01
-3.194973123008000115e+01
-3.529336783366510133e+01
1.368081314086144751e+00
4.188586504293058255e+01
4.189727280037389789e+01
4.461084032458164472e+01
7.482668240303834750e+01
5.266350200681118565e+01
-3.246103785558899801e+01
-7.921753492109414196e+01
-8.223542873564005617e+01
-9.519545443372655313e+01
-6.509766539255171836e+01
2.407488989894002884e+01
7.381956155432899891e+01
7.243622914953185443e+01
6.956637746703849245e+01
3.048660346212815497e+01
-3.100193340486148585e+01
-2.961083543002147067e+01
-4.047077324264563458e+00
-3.003982039485686073e+01
-5.521476664950618840e+01
-4.828221882818790789e+01
-6.337167214408387395e+01
-8.006101404578551239e+01
-3.366708226987697117e+01
5.275353162383686367e+01
1.135073613058463167e+02
1.175155143790498613e+02
7.769268528941681495e+01
2.568338977023565306e+01
-3.697896437135359804e+01
-1.006609155678291927e+02
-1.022270410364564270e+02
-3.924867573939108922e+01
1.443912908018027075e+00
2.974553157125941816e+00
9.535859309065267908e+00
3.955730600965905452e+00
-2.500043876907560048e+01
-3.398315595205449569e+01
-1.408112857410328722e+01
1.754922559906731294e+01
5.386130930957657625e+01
6.133974482038514253e+01
2.669654317106441610e+01
-6.485875891669983240e+00
-2.552088643791751466e+01
-5.097467326945801602e+01
-6.211306834464296855e+01
-3.680063916501325849e+01
2.374937544110871990e+00
2.316863526830467279e+01
1.427392649145759762e+01
2.617235763844279361e+00
1.105052298627261287e+01
2.223047098035859648e+00
-3.038635042865647407e+01
-1.985310268327269867e+01
2.041428572555078347e+01
9.137768424924733068e+00
-2.248950941556075378e+01
-9.513833617634176676e+00
3.696683016616529649e+00
-1.627973647311378613e+01
-2.631136827312021964e+01
-1.433834903476356004e+01
-2.311293566031116242e-01
1.028864197692607085e+01
1.143032708290823862e+01
1.694362594459953186e+01
3.773312753916322748e+01
3.260660681028818431e+01
-1.216817491286748520e+01
-4.512761864399648459e+01
-5.417574998995171853e+01
-6.244651091232815787e+01
-5.230729641783573669e+01
-1.497793224367835663e+01
1.812956679428489792e+01
2.636519875275405767e+01
9.906191024736752837e+00
-5.393135578236196714e+00
1.807540650074757593e+01
6.055659309857509953e+01
7.350634922821095074e+01
6.187588956520698247e+01
3.448215347191001712e+01
-3.025618375205264954e+01
-1.072184803777324333e+02
-1.399152901355256233e+02
-1.202991142701191194e+02
-7.354148420733112346e+01
-2.461759742218894331e+01
1.150400536435961740e+01
4.201909914195133666e+01
6.850919438285741592e+01
7.808827075351116775e+01
7.707510611480442719e+01
7.248414579677793768e+01
5.853438780730026991e+01
4.724578938941149886e+01
3.960351870721404310e+01
1.336501201522270676e+01
-3.206439879439774643e+01
-1.113098869465710550e+02
-2.366376337939776420e+02
-3.112017550426144794e+02
-2.444678412760174808e+02
-9.659652395138971315e+01
7.941227920862752399e+01
2.818510285225638654e+02
3.940768253402828236e+02
3.244466742996493167e+02
1.791436782065522380e+02
4.188153972748787623e+01
-1.071007531296442039e+02
-2.097992224109622441e+02
-2.194181331168015561e+02
-2.080983758987073315e+02
-1.917442192034536674e+02
-1.226241122102361771e+02
-3.267689420800402189e+01
3.896378724274494942e+01
9.721615132966614681e+01
1.221806446670128281e+02
1.161372276316406413e+02
1.104782098015168970e+02
9.077235123153562313e+01
5.784078294074905102e+01
3.502686442109234832e+01
-1.644208723795841820e+01
-9.454340325431215319e+01
-1.134860007812530398e+02
-7.966335469384031853e+01
-6.319187861388979854e+01
-4.727320616094021233e+01
-2.014004298415758853e+01
-2.421073329981361155e+01
-3.851040406950470896e+01
-1.875861900410578542e+01
2.392523778563705861e+01
7.354730710746252953e+01
9.838945774992383519e+01
6.282389200323517287e+01
1.614420610772068443e+01
6.948045276833149764e+00
-6.190723027814307500e+00
-2.863956006952301081e+01
-1.767258863391668910e+01
-1.053975738825575803e+01
-4.816988156943844501e+01
-7.705830348719680956e+01
-6.053002464489124890e+01
-3.152888549108329386e+01
-1.331320846441552064e+01
-2.004001841870796774e+00
1.354015840299788209e+01
4.128293652583067797e+01
6.344767527798006057e+01
5.843851984230020236e+01
3.608835741786024442e+01
1.028260737772419731e+01
-2.604479137530459809e+01
-6.765263686319117653e+01
-7.465218218057113120e+01
-2.854867925376924376e+01
1.189089981166107890e+01
-3.680258059041084273e+00
-2.362729997329368459e+01
-8.976028792757515973e+00
-7.865379359072656840e+00
-1.189681080005841451e+01
3.435367441418122780e+01
7.655691754517226855e+01
4.863141316484669829e+01
-4.350854411395790322e-01
-3.001645932355862811e+01
-5.421195102772094288e+01
-6.382082231763025248e+01
-5.923549761229255495e+01
-4.724981904208501504e+01
-6.583623309083707298e+00
3.144938559483779628e+01
2.997974128215320633e+01
4.398599279860203382e+01
7.106907514767206635e+01
3.148554341945729007e+01
-2.449629066502455288e+01
-1.834094071123002578e+01
-1.903159761736622713e+01
-5.551296959725269176e+01
-5.452500171528325978e+01
-3.079227848471485274e+01
-2.965637180371273018e+01
-2.028976866150593850e+01
3.813412166146676441e+00
3.047264927047340421e+01
6.424067357200637218e+01
5.747392905970600907e+01
4.978752539306158020e+00
-8.105879645354587382e+00
7.718198983227333443e-01
-4.162484962092990770e+01
-6.784305643944337305e+01
-3.059816221961043681e+01
-1.866120964289842021e+01
-3.931370791763432493e+01
-1.238657617415364420e+01
4.176284745407885168e+01
6.065905474963535227e+01
4.456851849786227149e+01
1.627178680096780639e+01
-5.482493561395351378e+00
-2.500453847071601032e+01
-5.681520470303233594e+01
-6.219563797041901410e+01
-2.029567986866883089e+01
4.369446731688986674e+00
-4.824775379465353176e+00
1.509855415379494303e+00
8.174309604673146268e+00
-1.552771487529757799e+00
1.093018033852496096e+01
2.811030658617435307e+01
2.104019742271948701e+01
2.762197048176080827e+01
3.184518768888955265e+01
-1.361018366524164236e+01
-5.228651586305712584e+01
-5.056316535065332829e+01
-6.896989079430113634e+01
-8.474365973888815518e+01
-3.416670639506688190e+01
2.743690216853397956e+01
5.103084401945567095e+01
6.956639814851807557e+01
6.587952593015727132e+01
1.515373826678853320e+01
-2.733948981996483241e+01
-4.041613367073883722e+01
-4.734623516085170536e+01
-2.096671245548467155e+01
2.723535381165693536e+01
2.600141344723842352e+01
-2.267018777273611896e+00
1.163533358985810118e+00
1.037312325725288531e+00
-1.396080930816292565e+01
1.312948425386712081e+00
5.109745407404648887e-01
-6.837582536925896193e+01
-1.230428593776946542e+02
-1.057559362216689749e+02
-6.540205463829316557e+01
-4.556255297678544203e+00
9.616861471314405208e+01
1.697107706927305060e+02
1.724878798091659462e+02
1.469476209183170852e+02
1.122453474800215645e+02
5.150452146979158385e+01
-4.187684801053624994e+01
-1.748873232636428270e+02
-3.085540837616969156e+02
-3.537331297029900838e+02
-2.823416786311091187e+02
-1.185625129521580163e+02
1.224431145164028578e+02
3.479349937462517914e+02
4.063902182467982698e+02
2.820780338550813440e+02
9.701526176058753492e+01
-5.824683067745358755e+01
-1.550852417768251144e+02
-1.753619643643175436e+02
-1.231863187170898470e+02
-4.978917017948693058e+01
-3.108301542187353306e+01
-7.299005834905662482e+01
-8.406226945839483733e+01
-3.433853664510432679e+01
2.736046889020795625e+00
2.805199739962987948e+01
8.794536659739507911e+01
1.147155163155023558e+02
6.435814301092224810e+01
2.465796316659825749e+01
1.504638839228950431e+01
-2.701819957126679128e+01
-6.485779381936342247e+01
-5.444446896411783854e+01
-4.470577518027889141e+01
-3.717147076710746489e+01
3.844667826463879834e+00
3.478778008600868077e+01
2.592066619696711527e+01
1.102240776160779312e+01
-8.656087645223571769e+00
-3.432916960435802878e+01
-3.655654641608521160e+01
-2.878512589811150235e+01
-2.245286041168501612e+01
8.851853589587740601e+00
2.912854002058860559e+01
-1.566019269178805295e+00
-1.944394666289412399e+01
4.037483702977873179e+00
7.872579128423939920e+00
3.940390544425773633e+00
3.747939872934396988e+01
5.350839729958528324e+01
1.335271345794668285e+01
-2.783983341067425243e+01
-4.464058020172855379e+01
-5.659536065123435122e+01
-5.521462327006783966e+01
-3.068557074494574977e+01
2.964850653241555278e-01
1.364873969660486175e+01
2.145179788846718338e-01
-1.015547048825116860e+01
4.602363975869145030e+00
1.160344938893341826e+01
6.836445859687046323e+00
2.473034341815446879e+01
2.921970275795636951e+01
-1.040535052655160442e+01
-2.609510154556001638e+01
-2.216109419063853281e+00
-4.747529828083534298e+00
-1.767252530655571974e+01
1.439965034332766791e+00
1.210517950977839519e+01
-1.307647689748510977e+00
-7.830236454440865579e+00
-2.048746485372391746e+01
-4.083216089442681351e+01
-4.073387824837515581e+01
-3.848267856507586515e+01
-4.026507481789192866e+01
-7.555785158441588933e+00
4.073360276998651841e+01
5.380284425251423386e+01
4.592312977778405525e+01
4.270380757005165151e+01
2.763826245092577238e+01
-5.818220863634930851e+00
-3.380863310486959961e+01
-3.697756987050724575e+01
-2.493107229989487195e+01
-2.075188292402222245e+01
-2.092347570810630941e+01
-1.454321895928270791e+01
-1.763947970293559564e+01
-3.138893413842800939e+01
-3.433137190933672400e+01
-2.279666947521187836e+01
5.072039740456504298e+00
4.463135374733845850e+01
5.819656847391389931e+01
3.537918106023871445e+01
9.638044411809298495e+00
-1.035060091960463957e+01
-2.414680237691587550e+01
-2.066009263775342930e+01
-1.960119109895781975e+01
-2.173693831043700442e+01
-2.196113213870668268e+00
3.598304046004992429e+00
-1.700496030543415671e+01
-2.843486162087030422e+00
2.278977193794131040e+01
-3.615391885185909260e+00
-2.760435778344459479e+01
-1.129519321479732952e+01
-5.013498440040222270e+00
-4.305830026687937462e+00
-2.062453388616254379e+00
-3.590420512397479769e+01
-5.881598139927676527e+01
-2.829778574347377429e+01
-1.096093617654948282e+00
2.886888503111139670e+01
8.787074125343653463e+01
9.500191326707715689e+01
3.736672268311613010e+01
4.988258868651378464e-01
-1.343410492001250489e+01
-2.428888042482027387e+01
-2.014024177449019248e+01
-4.288754995986073482e+01
-9.044273745567940637e+01
-9.116721383854860505e+01
-5.355365075924294871e+01
-1.341984591796265747e+01
1.677638282157410998e+01
-1.090870782258194005e+00
-2.245454734301613442e+01
1.310465511896982527e+01
2.210705916118803671e+01
1.222234270926462329e+01
9.278670244559168623e+01
1.342100488603350357e+02
2.762151966977139139e+01
-2.429439889195474933e+01
4.903907449947650576e+01
8.659807260155508857e+01
5.939166820376532030e+01
-2.293558970083305582e+01
-1.505847512877194561e+02
-1.835926487878290629e+02
-1.457943996875686139e+02
-1.628971575580343938e+02
-1.057860619499141990e+02
-1.850124668094771607e+00
-1.192762010017059282e+02
-2.581803033193207284e+02
-6.964474612040810086e+01
2.363299411563454839e+02
4.479999511576861551e+02
6.290266778393066716e+02
5.722844729055610742e+02
1.667601068920893397e+02
-1.883912226272418877e+02
-3.189844291432740988e+02
-4.290742524594584779e+02
-4.097825228841213061e+02
-9.319418936990467728e+01
1.522725657324582755e+02
-2.943286959626644261e+01
-3.357625813226655396e+02
-3.853057795331754960e+02
-3.738743662744997778e+02
-4.484569905145564803e+02
-1.859581477000529048e+02
4.956722184559889115e+02
9.547003856935660906e+02
9.081306627920715755e+02
6.442844263193110237e+02
3.098632840164872277e+02
6.413640199227434380e+01
6.373042322212702260e+01
-5.644329133225530093e+00
-2.810269987725993133e+02
-4.691026644735079572e+02
-8.292392483028016841e+02
-1.568162260608954057e+03
-1.642857240372026126e+03
-3.605748887588476350e+02
1.046064788503539148e+03
1.334557165163892705e+03
1.083871510310647636e+03
1.004184045279127304e+03
3.375507400309368222e+02
-1.033250252504901255e+03
-1.228727357875623056e+03
2.103559851767383577e+02
1.008525143265355155e+03
6.376373219376959014e+02
8.163655593796488574e+02
9.938424313386950644e+02
-9.433181312242072636e+01
-9.772939048777938069e+02
-1.014858801655347179e+03
-1.486714871745643677e+03
-1.623451712996581591e+03
-7.982865281531974233e+02
-7.321378552239311830e+02
-6.702940452530574476e+02
1.184017648427849053e+03
2.291976770692185255e+03
1.292943307295344539e+03
1.393858995236144438e+03
2.269494631152595048e+03
6.146808450289283883e+02
-1.483236342357193507e+03
-9.795455289478587702e+02
-3.516088129403206608e+02
-1.253573153966660811e+03
-1.304407364408694320e+03
-2.880733343967643805e+02
-3.813150486749316883e+02
-1.132755795822641858e+03
-6.502578871920824213e+02
5.852180101513587260e+02
9.660151284175736919e+02
7.991411588641445860e+02
1.049895836273563418e+03
8.726484152088190740e+02
-8.477338374346003036e+01
-1.040461178411446070e+02
6.524304841982592507e+02
2.836139304317110827e+02
-2.844030407814539103e+02
3.566303744976705659e+00
-5.592885385142013774e+02
-1.371915473047110936e+03
-4.032926045375381250e+02
2.148273939279592071e+02
-7.125085998706790633e+02
-3.157195729225173864e+02
6.460756717404410665e+02
-4.093122400992792791e+02
-5.820641912721318931e+02
1.447348862496171932e+03
1.396442043197203702e+03
-4.887040527401645136e+02
-1.282304163105134762e+02
7.464910388896554423e+02
-4.946347720153044065e+02
-1.019267222108619080e+03
4.262480842188988390e+02
9.696951559089277453e+02
1.289414326814584300e+01
-5.995244923394253647e+02
-3.764972325275167577e+02
-5.629591273612937385e+01
-4.129832323581005085e+02
-9.418545693848271867e+02
-7.759034898106014566e+01
1.220826478720720161e+03
5.277720549272655717e+02
-6.546451675684703559e+02
1.419767541580084185e+02
6.703008819145231882e+02
-7.946029566380743745e+02
-1.010769017396467234e+03
9.330064890540843408e+02
1.192997072173128572e+03
-4.157973986772551598e+02
-3.444030231499343131e+02
5.795048486653900000e+02
-2.741841863928167413e+02
-8.342360338496423537e+02
4.727985104369525402e+02
7.264067208975733365e+02
-5.839113221987320230e+02
-6.125001306056141175e+02
7.039181735574439358e+01
-3.206771195693016239e+02
-1.892688799779350575e+02
7.720406018115991174e+02
3.964589403035799933e+02
-4.970383946942823172e+02
-1.963065110963009090e+02
-5.752022662361253680e+01
-3.946590486028184728e+02
2.482635318776227393e+02
7.447246781562141678e+02
8.065403226854851226e+00
-1.484290349445157631e+02
4.742676262109524146e+02
1.698213162374954095e+02
-2.965121429488497142e+02
1.147301897224210734e+02
1.238514432644327101e+01
-8.130570022844210598e+02
-7.413645420681054929e+02
5.601433022122768079e+01
2.970750606599114008e+02
1.273085137006452783e+02
1.570723038098590223e+02
2.403255116080413529e+02
8.989466053196143491e+01
-1.334929510427618027e+02
1.903506801139120519e+00
3.381898587253858182e+02
1.421403232506883114e+02
-3.921815488994940324e+02
-3.755425896112866440e+02
-1.404756882747784985e+01
4.964272987022819450e+01
8.984286160655513243e+01
2.759819141174958759e+02
2.174683969659910758e+02
1.710401454788598130e+01
-1.745657736430741380e+01
9.648675577514385537e+00
5.879247569974858578e+01
5.284401944077330171e+01
-2.559307444007164349e+02
-5.733836657339252270e+02
-4.600070452102261811e+02
-2.057403420282259390e+02
-8.142204076954894276e+01
1.578987373679891562e+02
4.250241671237543528e+02
3.873605160602389788e+02
2.246588621658770535e+02
2.109174719918144092e+02
2.145183002488001307e+02
1.119152548264705302e+02
-3.269162777959686572e+00
-6.908873654979863943e+01
-8.911330544961390387e+01
-4.949317258119443608e+01
8.189667929097296906e+00
-7.163190244182536048e+01
-3.558686900085014031e+02
-6.192899711795182611e+02
-6.460840472273285968e+02
-4.975348113512636132e+02
-1.598531373750411717e+02
4.355072354730865527e+02
8.876620350745391761e+02
7.733819311212645289e+02
3.892329421604243294e+02
1.486023516301794984e+02
-3.517310606406780948e+01
-1.938603800635204664e+02
-1.333941463993762113e+02
5.131845660728939151e+01
9.995327346883186692e+01
-2.455065105704527895e+01
-1.813601764299229728e+02
-1.835345976415177915e+02
-8.205195175927437390e+01
-2.375035541819651144e+02
-6.157724999287928540e+02
-7.047532190649462791e+02
-5.092549466867238834e+02
-3.789523619309954938e+02
-4.289792631111192023e+00
8.496869981869269850e+02
1.430305739234434441e+03
1.238593904543752160e+03
8.156854982841230139e+02
4.637611697054471165e+02
-1.164819155509336497e+02
-7.447131705543044973e+02
-9.405142158040766844e+02
-8.259682933772616025e+02
-7.297881088361141337e+02
-6.013739981556201428e+02
-3.515322220836809493e+02
-6.079825849468684140e+01
1.999026472656259443e+02
3.622527108457533132e+02
4.214604023557852770e+02
4.912109448758282042e+02
5.371712416554079255e+02
4.044753427224195548e+02
1.898815675984215261e+02
8.536378892252123762e+01
1.129056306733656001e+01
-1.458591346173907084e+02
-2.617014268845973675e+02
-2.448805344899873830e+02
-2.244200985782237865e+02
-2.901025635911839800e+02
-3.298404278444181159e+02
-2.486368331854060614e+02
-1.245869888538090038e+02
-2.918979443639592120e+01
8.803649618234754826e+01
2.220778720288599573e+02
2.747317825827313982e+02
2.469422349872398570e+02
2.093653098811742268e+02
1.533519805909777745e+02
6.756492485763122602e+01
-6.292160352550103752e+00
-5.799896776103465612e+01
-9.042680205784292014e+01
-9.135928525269848421e+01
-8.487370605403961576e+01
-9.170403136376641839e+01
-9.906980035824317099e+01
-1.067606856898228642e+02
-9.517277764681007568e+01
-4.496522348175212613e+01
-1.043645760663604882e+01
-4.277399490783241554e+00
3.280757032396548567e+01
5.738705152911668250e+01
2.143910467836607125e+01
2.500489634418151041e+01
8.063312784855811799e+01
6.894312428412580118e+01
3.631690509087728458e+01
7.816850670600129547e+01
9.020456278399842631e+01
2.674109326941957576e+01
6.752767852448688934e+00
1.986798680248135440e+00
-8.992603151445652543e+01
-1.733355173218245113e+02
-1.553917251991983335e+02
-1.209039802096550460e+02
-1.104953306360043683e+02
-6.337022995418102767e+01
1.039393919374780495e+01
5.659367437835274472e+01
8.438638313527037838e+01
1.225412007601235871e+02
1.557864919935915395e+02
1.400353080797409007e+02
6.646847563814156956e+01
-9.036676585530498684e+00
-4.507237236499551614e+01
-6.363514610108173741e+01
-7.746820194157166384e+01
-7.145418035712400240e+01
-5.905895514455602324e+01
-5.882612266681963575e+01
-5.774492875815737136e+01
-4.403305190341446007e+01
-1.445070783313980378e+01
2.729145628294297055e+01
4.639656465156215148e+01
2.326364939895263007e+01
-7.717668286530496857e-01
1.877457978474139644e+00
6.904915620844249702e-01
-1.264571615902501733e+01
1.113332823727278154e+00
4.662358570496714805e+01
7.930762404241532693e+01
7.964444837714161451e+01
6.542783018573400966e+01
3.566054062075045294e+01
-2.944956818711270330e+01
-1.096982569118449078e+02
-1.452327779002167745e+02
-1.135465864614395741e+02
-6.553773920253085805e+01
-5.786171760124098995e+01
-7.493159503761717133e+01
-6.537396000873232538e+01
-2.674100798357560294e+01
2.315258488086411859e+01
1.027498663586589771e+02
2.012811097238166553e+02
2.428903959184146117e+02
1.924926635053063819e+02
1.026753194442010653e+02
2.588663991150007959e+01
-4.104995341710534973e+01
-1.295880377024216443e+02
-2.405357715591128738e+02
-3.166499350825135934e+02
-3.154203590994973752e+02
-2.462167859395321727e+02
-9.090890920349775683e+01
1.472036908500128618e+02
3.293474139789083210e+02
3.397101743171397743e+02
2.447559203866998132e+02
1.257906528676726765e+02
-8.509384488135509628e+00
-9.368828985783845553e+01
-8.417049421658160213e+01
-6.344741882222527352e+01
-7.880783783453433955e+01
-8.327333074391677314e+01
-8.099497746978236989e+01
-8.810657345086967496e+01
-6.077719019877569906e+01
-1.139401334651625675e+01
1.968861988771887006e+00
1.825194791742427824e+00
1.875499770603508409e+01
2.495593696845235954e+01
3.322780276043170744e+01
6.894138662816048679e+01
7.835764852580129514e+01
3.647998963283784235e+01
7.770435618488766849e+00
2.498757206000183473e+00
-3.068511061526889705e+01
-6.076434931313001897e+01
-3.433129022877564296e+01
-2.109641230479158303e+00
-6.840514375114373102e+00
-1.428372004010656227e+00
1.178410318985378424e+01
-2.581180980651657464e+01
-7.875715032215298095e+01
-8.335510892493707047e+01
-6.840235837295466581e+01
-4.302722676231177701e+01
2.788840048158846230e+01
8.572827528126590835e+01
7.436175812600818347e+01
6.914355135486921711e+01
9.329790167912106824e+01
5.537197602198817492e+01
-2.227813665042833335e+01
-3.817402027655804631e+01
-3.851786139965681599e+01
-9.345098850066240459e+01
-1.156151685509321823e+02
-4.400287412628888717e+01
2.541918304291423780e+01
2.766771083079031612e+01
1.465907932807563441e+01
1.256217368026649339e+01
-9.044664051500259205e+00
-3.847235805805343745e+01
-3.463258085716717005e+01
-9.697393344021980610e-01
2.916104126128826479e+01
3.661954000959594424e+01
2.545839359087872822e+01
1.735351779459989530e+01
1.971884192427913263e+01
7.598643828225946528e+00
-2.105118265349636175e+01
-2.929977405560919834e+01
-1.550466751512743002e+01
-9.344271708957595735e+00
-8.879238161609974256e+00
-1.095320364983925820e+01
-2.573564041857301632e+01
-3.106807905710859075e+01
-1.978517699367627714e+01
-2.674291643168420407e+01
-3.350140369586247147e+01
-3.158725720337680620e+00
8.768480690682011414e+00
-2.562049606225722087e+01
-1.863921116739265926e+01
4.826583167628881199e+01
8.469176818833980747e+01
7.841401421167117292e+01
7.634081215993624880e+01
5.406168203608244482e+01
-9.538414447026521970e+00
-6.928423062379165742e+01
-1.028826813229961630e+02
-1.223405241214194916e+02
-1.249353245325388428e+02
-1.115012909434525454e+02
-7.468428849380799761e+01
1.129176060440894247e+01
1.158057508157861974e+02
1.614902694192541048e+02
1.367130163674867163e+02
8.154847517767997545e+01
6.503804072117313595e+00
-6.524647410657360069e+01
-7.880680015209199496e+01
-3.931188545306697790e+01
-2.813515277827763228e+00
1.267811326732154242e+01
3.221063391498813822e+00
-4.299595186858043405e+01
-8.175239005648585078e+01
-6.372055926706031670e+01
-3.412413379297194638e+01
-3.439582290468627690e+01
-1.584874805662754405e+01
3.203183630284360106e+01
4.986642175831952528e+01
4.715889706842396834e+01
7.259932778319389968e+01
9.024801727763689030e+01
5.162958961014708592e+01
-9.743863608640381813e+00
-4.745021193861747832e+01
-5.856722257373829876e+01
-6.142147694248594547e+01
-7.098655863130964860e+01
-6.670046506181041934e+01
-2.591559077293273106e+01
5.043563689800404148e+00
-7.436901464041698162e+00
-3.884105997970640267e+00
3.048063966713724682e+01
1.929554663342711862e+01
-2.406922438376983564e+01
-1.103622380567428785e+01
3.551571610322820050e+01
4.779938471556160096e+01
4.680192094155999172e+01
4.915592665101617342e+01
2.005479892286998478e+01
-3.027396203575052169e+01
-5.534063154924933770e+01
-3.923276238418865347e+01
2.361950480031263844e+00
2.107557260603426030e+01
-1.657423754282075379e+01
-6.951386074504242174e+01
-1.075485310259802816e+02
-1.468105486958510255e+02
-1.384235302906855338e+02
-3.362641312515307845e+01
8.303823115293108970e+01
1.386564291260762332e+02
1.777581982557272795e+02
2.039226603946437706e+02
1.689631934293094560e+02
1.077298592130034223e+02
5.648458089047875319e+01
-3.496606403059476520e+01
-1.850674620789941969e+02
-3.260059132648713103e+02
-3.797844393954538305e+02
-3.098331107216246778e+02
-1.370120904675495694e+02
8.659103393069496235e+01
2.931251811994227410e+02
3.743712012358606671e+02
2.821960722487893918e+02
1.242184884513993808e+02
-3.982323952303464587e+00
-1.091074251344146120e+02
-1.447359864400100093e+02
-7.622044806710646014e+01
-2.236099539784188650e+01
-4.284018539650703161e+01
-4.614599730518800413e+01
-2.848406898641817975e+01
-4.677303554751879489e+01
-4.930427565905200282e+01
-1.649199533812686980e+01
-1.384742134834944416e+01
-2.024846683539515979e+01
1.299318850305773410e+01
4.726879757914077373e+01
6.183055031693252346e+01
6.818628739470987909e+01
4.143152884195539798e+01
-8.596451905389994153e+00
-3.218975479888099755e+01
-2.816438346475709409e+01
-1.517942984737604917e+01
1.037451387473689479e+00
2.270006401069782243e+00
-1.170036724241757042e+01
-2.537539736791498157e+01
-3.844826828959983800e+01
-2.921146912184702416e+01
9.152113017720704846e+00
1.802544262838653211e+01
-1.579101409706626669e+01
-3.234522315602855969e+01
-2.732417893686738353e+01
-3.071271467956673362e+01
-2.361434965387461205e+01
7.778710558288066679e-01
1.704499451593060400e+01
2.254272670153821778e+01
2.771739867134132496e+01
4.837422257189106034e+01
8.363236133543691153e+01
7.709476495325283452e+01
1.334081139962322204e+01
-4.029322040891550216e+01
-7.753560110286953488e+01
-1.271022625093614522e+02
-1.270595114391210672e+02
-5.721066107716441707e+01
-4.078072885361067712e+00
1.939344315658606277e+01
5.017077692978905645e+01
4.953485984367753758e+01
1.861271941131456487e+01
1.803115238325187875e+01
2.391740758214592688e+01
3.548252120048009495e+00
2.186680023417473251e+00
2.032842002782264501e+01
1.466060934155823858e+01
1.959902243931585630e+00
-3.737288560463829512e-01
-1.494544898380642195e+01
-3.897291494085610708e+01
-5.762604396198143064e+01
-6.807971913203914482e+01
-5.816843153546767553e+01
-3.517540402641671449e+01
-1.524819106848933004e+01
1.888448595169054656e+01
6.070127849139371534e+01
6.965706096918584933e+01
5.348798550840211163e+01
3.632450737670361463e+01
4.574842186406788969e+00
-2.921337730067528327e+01
-3.512186898499980714e+01
-3.406673335985465201e+01
-3.594416506280933987e+01
-1.363341832371349227e+01
7.710976196552620010e+00
-1.109631252701669446e+01
-3.306290709329232413e+01
-2.624710117606268156e+01
-2.565754866560404679e+01
-3.629783219120547955e+01
-1.434488903688689021e+01
3.284571919540307050e+01
5.672084878380552908e+01
5.275768201834102200e+01
4.241524157404521844e+01
2.268434165516224255e+01
-1.038922427009624094e+01
-3.720389633911644012e+01
-3.706667314382462308e+01
-1.300779830789426228e+01
1.892544477690761617e+00
-2.145635537039856899e+01
-5.777732056993818333e+01
-6.805179927731980172e+01
-6.588978779044894907e+01
-5.880967880032544315e+01
-1.132927652709570765e+01
5.941940335949389862e+01
8.934717610069301941e+01
8.425810018774741650e+01
8.265208467039781226e+01
6.791036466378581338e+01
3.089658698663699710e+01
-2.162973088448062242e+00
-3.817835572844381176e+01
-9.101127350768857127e+01
-1.331479185271190033e+02
-1.378585458924498823e+02
-9.743874043837465138e+01
-1.909142325858161016e+01
5.473042338761127468e+01
8.644737178739566730e+01
8.249889009583682764e+01
4.875610835464537729e+01
-4.849622269048361467e+00
-3.032375536148129669e+01
-1.278422918986359846e+01
6.720965208257575263e+00
1.838656299597832344e+01
3.097163141730337088e+01
2.131531609531177196e+01
-3.818703445748357517e+00
-9.078204109086337681e+00
-1.395763563088902615e+01
-4.013347339762538724e+01
-4.990198417419758670e+01
-3.954447723067155351e+01
-4.627556188393748471e+01
-4.319886261013284923e+01
-4.313188908595848581e+00
7.743577633315410935e+00
-3.006445876764699321e+01
-4.327527360664938527e+01
-8.519634790402410118e+00
2.680393738744155030e+01
5.562900815073338379e+01
8.450761138697450292e+01
9.327855922027964652e+01
8.633511334088304068e+01
7.129571585159314395e+01
4.324282725687405815e+01
2.712195884767921683e+01
-3.517280437091759637e+00
-1.342532441801269556e+02
-2.990782225163879957e+02
-3.316739279836241963e+02
-2.464251337415222451e+02
-1.223634183796210664e+02
9.268347156016018573e+01
3.397466240926025307e+02
4.001857276408426856e+02
2.652752138528326782e+02
1.146726025626596197e+02
-1.123358500488128264e+01
-1.330636412840349578e+02
-1.711652883918324335e+02
-1.154545867363726614e+02
-7.345380263280857491e+01
-7.361284960309944836e+01
-5.800302675440148192e+01
-2.725846478080880786e+01
-2.202096181613966408e+01
-2.236411132571282323e+01
7.509282853248688383e+00
2.876841974602059793e+01
1.171001698150824666e+01
1.957471187268422241e+01
6.848365705979716722e+01
7.377703300415294052e+01
3.131105834113387587e+01
1.104276831250540525e+01
-5.429531378947002551e+00
-4.106389885782353133e+01
-4.278946637454912860e+01
-1.449194187925574440e+01
-3.294838748380451321e+00
-2.814756331993010896e+00
-2.000008096169343119e+01
-5.641521985272066786e+01
-5.305078567706920012e+01
-2.021010097766793834e+01
-1.988448448641494082e+01
-9.709240727242537616e+00
3.854838629553527340e+01
5.069722141592099973e+01
2.908240842244530455e+01
3.012125290258207855e+01
1.967911826107926743e+01
-1.660616814463439894e+01
-3.109135456823143784e+01
-3.421446555104251530e+01
-4.251040255290410386e+01
-2.725797691765254172e+01
-5.848123079263523039e-01
9.590551740157255978e+00
9.923820125134614756e+00
4.764114164183831157e+00
1.175512602822631791e+01
3.258655686505913707e+01
1.617795001072202155e+01
-1.621158364134389274e+01
-3.291843022598051505e+00
-1.237840692788605779e+01
-7.335131504356908749e+01
-6.695463037990100474e+01
-3.957683721535528498e+00
-7.237323304756349884e+00
-2.761542319988228655e+01
8.329594298722867052e+00
3.209942850854466911e+01
3.235648337694664178e+01
4.956177911038659545e+01
4.301644913150562388e+01
1.474349529665921921e+01
-3.928539804437951588e-01
-4.303123742916070427e+01
-8.026480997613373347e+01
-2.747976090142461558e+01
3.685579798936070972e+01
2.475550523485500065e+01
1.264804027808435372e+00
-1.370893003746216365e+01
-6.249755105829716229e+01
-9.108506561026710813e+01
-5.385131998539635134e+01
6.069490901298648211e+00
5.098879877002074323e+01
5.182566956454495966e+01
1.426760535100185123e+01
6.649565225052105788e+00
2.471984871764560054e+01
1.773038197569687568e+01
3.204488791329413999e+01
6.464707529744508463e+01
1.414921572022892171e+01
-6.891133293401995275e+01
-7.123913180036591086e+01
-6.143178104340640999e+01
-8.436226696404536085e+01
-4.757751477794542438e+01
1.468549488434686268e+01
-3.224956971880613921e+00
-3.089229461085388806e+01
1.524653391237326616e+01
6.380010412015401755e+01
6.316005123785665631e+01
5.316549788236200413e+01
4.723738307265416836e+01
2.223615896253756574e+01
-2.669839967100118017e+01
-6.796600554846075681e+01
-5.985839112354977232e+01
-2.694315843109263398e+01
-2.825854309050770041e+01
-3.496090572120449025e+01
2.818089279385055157e+00
2.668465632087148265e+01
-1.281596045175789911e+01
-4.331800174829820094e+01
-1.911471243598442271e+01
6.316193977338961929e-01
1.668635103084091575e+00
3.884227262828370186e+01
8.644217637590776349e+01
6.562172927974776826e+01
2.417114094571426008e+00
-2.856075711237960135e+01
-4.045112087202527107e+01
-5.480998084503170276e+01
-3.577589352574767645e+01
-4.312843651898335295e+00
-2.341706843415180828e+01
-6.187491568167544642e+01
-5.910027413829729426e+01
-3.369741993293107640e+01
-4.932355879006153465e+00
3.982571364690192439e+01
7.436531216567816216e+01
7.073199563489116315e+01
4.854647465049633581e+01
2.949668699212890743e+01
2.065183754754061596e+01
1.609706945613621798e+01
-7.899452938140834490e+00
-4.329816898715251483e+01
-5.760876001778433420e+01
-6.712079526527972462e+01
-8.784142538302562286e+01
-8.114549665450782356e+01
-4.941462249544579777e+01
-4.223821603597184549e+01
-4.086782324598173233e+01
2.578952794043359198e+00
6.496573487740491260e+01
1.048993821445752701e+02
1.276867684881649012e+02
1.452312612140595434e+02
1.392850769574102401e+02
9.244007956167087059e+01
2.422303202756850737e+01
-5.026003733524643025e+01
-1.636765629611979307e+02
-3.015172896173777985e+02
-3.506583594209402008e+02
-2.617943233995528090e+02
-1.022264649508371122e+02
9.470388213918820952e+01
2.967744766506024234e+02
3.738320752919581764e+02
2.735760495905399807e+02
1.177627510760980840e+02
-6.616440439936354778e+00
-1.065646787044075694e+02
-1.473269343904326263e+02
-1.080296049742615736e+02
-6.886602598976726597e+01
-8.257571279999163494e+01
-1.009230958866705521e+02
-7.912371567805121231e+01
-2.725496742855396448e+01
3.157161685169519316e+01
7.937643223218651656e+01
9.977953925850979999e+01
8.072532762130933293e+01
2.271530723100213578e+01
-4.216908080073281440e+01
-6.681245135818249992e+01
-4.792147195394384340e+01
-2.140475184353590166e+01
3.919284907507757154e+00
3.827467045953588354e+01
5.515344932299871772e+01
3.032796015429770620e+01
-1.523493881219945223e+00
-1.018120448542740419e+01
-1.798400578788244886e+01
-3.513641677177526645e+01
-4.357936530371782169e+01
-4.390084621071237336e+01
-3.799315055432507648e+01
-1.862738398835003295e+01
-3.729076494180108448e+00
-3.613702435766430021e+00
3.914640160030508298e+00
1.133645537720165564e+01
-3.106409229431591257e+00
-4.360000090211729962e+00
3.475893870583894341e+01
6.733667115090531752e+01
5.548296764256478042e+01
2.207822376109139739e+01
-9.817307148267936157e+00
-4.302334869710320930e+01
-7.102125553374057176e+01
-6.870563163358862369e+01
-3.006110090340831675e+01
3.054154448956970747e+00
-6.487970009507426639e+00
-2.451228144697471123e+01
-7.572030227442899886e+00
1.451271432490206870e+01
6.364056660799161769e+00
-1.792932628209506163e+00
1.511662377151171910e+01
2.384838153357047119e+01
5.779174468910723839e+00
-4.876272670822601185e-01
2.040725034113302172e+01
1.982433875548493063e+01
-1.933673420716237956e+01
-3.912328988132047414e+01
-1.677393624112207604e+01
-2.983404556079561232e+00
-1.033775072832683506e+01
-4.024891564462967253e+00
4.037135979992889645e-02
-2.876680789090302781e+01
-5.200127693087782887e+01
-2.786926444352029364e+01
1.247777622232871053e+01
2.463024956916915897e+01
1.463929780685465687e+01
4.921152188978243025e+00
-3.258624734449182547e+00
-7.341779596523044127e+00
9.100063809003600568e+00
3.731873679147474121e+01
3.577619833311244690e+01
-4.196052020661490189e+00
-3.767887329978365329e+01
-3.846935483704824321e+01
-2.993357361035028674e+01
-2.640563390731428228e+01
-1.238972101393858161e+01
-3.973356462230359654e-02
-2.339355880938946441e+01
-5.085060358648451739e+01
-1.957056321943442612e+01
3.808746769874560556e+01
5.371960130257429000e+01
5.232682942566435003e+01
5.751498935290665315e+01
1.694024730531771183e+01
-4.870093028201208796e+01
-5.474594170515177893e+01
-2.978287033941703044e+01
-3.327754213642359105e+01
-2.666120920227443492e+01
-4.140758663729009470e+00
-1.581119491759185181e+01
-2.870625825744459547e+01
-6.976855421091292087e+00
-2.387851936617526150e+00
-1.329083166207642464e+01
1.824603321358028651e+01
5.895988728974354132e+01
5.763828116177590744e+01
5.040753121991077279e+01
5.488199204045125157e+01
2.317077839191806277e+01
-5.221966571584801642e+01
-1.149158793044366575e+02
-1.269360805692279257e+02
-1.049111942133042703e+02
-7.010636573553389894e+01
-8.286197539347902818e+00
7.346636789556433200e+01
1.121284647336333649e+02
8.586886566695321221e+01
4.980906279883378573e+01
3.140262126083194971e+01
8.043946492164215201e+00
-2.455450685995631588e+01
-5.056079088924379761e+01
-6.039463688624402238e+01
-6.048359063872376140e+01
-6.817309614256960515e+01
-6.108306164507667546e+01
1.964932542816388406e+00
7.526008720201923552e+01
8.826613353724255262e+01
7.374728020833245523e+01
6.363915907780983616e+01
1.388632541767172235e+01
-5.768948922444047867e+01
-9.083643562776404679e+01
-1.127456505270177303e+02
-1.372038921437612942e+02
-1.068650818908127036e+02
-3.673935309481431233e+01
2.430801371293591018e+01
1.018260714669476386e+02
1.704092845980837581e+02
1.549038595264788682e+02
1.087711008697412325e+02
1.025750283808530270e+02
7.417582779239477020e+01
-1.914787102604000424e+00
-7.727929432092740569e+01
-1.855318145922330189e+02
-3.243173298808298455e+02
-3.583722304822170486e+02
-2.456556398060374704e+02
-6.398133484458993792e+01
1.664072350222993180e+02
3.737254406822732449e+02
3.924738843467771972e+02
2.384870373423642889e+02
8.628323276703221723e+01
-2.263637957341257234e+01
-1.173695811055550422e+02
-1.422092851782175558e+02
-1.007773492319485626e+02
-9.144019827452044069e+01
-1.285714408075623112e+02
-1.427471026727764070e+02
-9.523036160547783879e+01
-5.078227452263361030e+00
6.350570461930634991e+01
8.168440932085596273e+01
9.380088968344573175e+01
9.203180954285099347e+01
3.096366291539082027e+01
-1.894344774850933533e+01
4.558925926273738050e+00
1.741418118410456373e+01
-1.641631560056931249e+01
-2.709556256505795346e+01
-1.561918445995789639e+01
-1.271581351550610606e+01
1.478466409294636463e+00
4.294797470420965269e+00
-3.004319530215061462e+01
-5.100340700432124663e+01
-4.747116938713335088e+01
-5.720798303166312593e+01
-4.528168439443135895e+01
1.642296609256601769e+01
5.648465747577779439e+01
3.649405297387838942e+01
1.764230832844774710e+01
3.500356095878166940e+01
4.421631676839166403e+01
1.769884309062418026e+01
-7.026828730730056982e+00
-1.220351097372616245e+01
-3.281562126068645568e+01
-6.024642831823503286e+01
-4.563206044017145047e+01
-4.048121861621708284e+00
2.086384654017930274e+01
2.039597342236388045e+01
-1.216905730653259710e+01
-4.920377206273900583e+01
-3.676845127123787904e+01
-8.502523269674567175e+00
-1.805071685884691135e+01
-2.474515780579658397e+01
3.289812434417910936e+00
3.809439841950874950e+01
6.591129549815735800e+01
8.264398288690355798e+01
8.729307998286124359e+01
6.485510281537514743e+01
-3.034379949543651378e+01
-1.327652993935039092e+02
-1.069047758401606387e+02
-2.138517351693332103e+01
-1.098474839771088263e+01
-2.570015450000798296e+01
-3.418571898600728787e+01
-7.318327153531534179e+01
-7.257828625862200056e+01
-2.088099190472798838e+01
1.433138537248210298e+01
7.129527204125561468e+01
1.048090086826506706e+02
2.296017784004610007e+01
-6.240771577737793230e+00
1.039263745907545342e+02
1.429310597556284961e+02
8.369113179353757914e+01
3.971174656304711448e+01
-4.441367845848189688e+01
-1.160894803652273310e+02
-8.440131146086874026e+01
-9.572113311296700999e+01
-1.585299214239004471e+02
-1.420646978368506268e+02
-1.531104717770917034e+02
-1.896419214422771518e+02
-5.306668891328828863e+01
1.498915165620866503e+02
2.250571350121956584e+02
2.120351211484576766e+02
1.334391011471777801e+02
6.793324244772398401e+01
1.273702601021191327e+02
1.358357734227860760e+02
1.801335414261745171e+01
-2.361028197569431342e+01
-4.979514115120610285e+01
-1.514957983609965879e+02
-1.305353277222354507e+02
-4.041393670987790898e+01
-6.788783012937706474e+01
-1.249506804593843867e+02
-2.394561648078565668e+02
-3.763531455575242717e+02
-1.952988098807715005e+02
1.312716632803119694e+02
1.512209982239256192e+02
9.858222694503123762e+01
1.989787500084664202e+02
2.251727788236551362e+02
2.797003275949492718e+02
4.287511578100850329e+02
3.325200078405964064e+02
9.702818710376803324e+01
-3.903819733499076250e+01
-2.929850325597366236e+02
-4.209645791990857902e+02
-2.405963092005221426e+01
1.813160187877824967e+02
-4.414196536432578455e+02
-1.084359520136340734e+03
-9.657454657097707695e+02
-4.807378781896579767e+02
2.872285561458138403e+01
8.583134138145520637e+02
1.671420265168841979e+03
1.450965803818979794e+03
3.509680142406730283e+02
-3.533375814276306528e+02
-3.647867512124694258e+02
-2.794987140218217405e+02
-2.117369178462192849e+02
-2.178373123446733644e+02
-4.251786284211904672e+02
-5.094640564867997909e+02
-4.807158457227581607e+02
-4.519805164808659015e+02
3.139494465002539769e+01
4.712747800827920628e+02
7.025284148904772508e+01
-7.767634319882898808e+01
5.491929781757802402e+02
7.297218949227949452e+02
7.711866837265908998e+02
9.497309344117786623e+02
-2.998980510314960384e+02
-1.790600837936630114e+03
-1.250294487915160971e+03
-6.865322518640144835e+02
-7.875991468471239614e+02
1.090557138284770190e+03
2.641586735293764832e+03
7.261538391666589405e+02
-6.838949030014464370e+02
1.552125423209552082e+02
-6.841311146951687761e+02
-1.773494969526769637e+03
1.122565338330033882e+02
1.221875908032402322e+03
-1.558396556355538394e+02
-1.392106105985552915e+02
6.182967327432177171e+02
-6.828160026828348919e+02
-1.564967022060128556e+03
-3.492056629364285527e+02
4.957574923533776996e+02
4.128201375516915732e+02
9.311950329308828032e+02
1.697901885195135492e+03
1.205733343360240042e+03
-5.241710727089638340e+02
-1.397079854141219130e+03
-5.796605132852595261e+02
-3.080952106149186420e+02
-8.373248781893487376e+02
8.491916156101966351e+01
8.970627872826361227e+02
-4.941621169104370779e+02
-1.104694027537934517e+03
1.372717830281108036e+02
2.679834194945653962e+02
1.173078343542726145e+02
1.207816993732048786e+03
8.022995408342667361e+02
-7.269265579195165401e+02
-1.644729306923556180e+02
4.944528214824593988e+02
-5.518195196925449864e+02
-2.379311142882121146e+02
1.050531936721260081e+03
1.142530679153312718e+02
-1.109877757688145493e+03
-3.635519269580323112e+02
1.558048065049216575e+02
-2.484543631106273551e+02
-1.252993600345551783e+02
-2.575522264183612720e+01
-2.581025882214432841e+02
2.832766724840855943e+01
2.061986307589273508e+02
9.379708279786197522e+01
7.219504553368461757e+02
1.048298861139732935e+03
-1.094892432418471770e+02
-9.484274570426468927e+02
-3.787594677789438151e+02
7.287171744827354303e+01
-6.467490662488326336e+01
8.289419720157178517e+01
3.227304664648966082e+02
1.160048484950689129e+02
-4.216426445690869969e+02
-8.201168877159236672e+02
-3.046041272608418353e+02
7.991900893028783912e+02
7.817202994086060244e+02
-1.903066381557788134e+02
-2.264744802213578794e+02
1.799438734147418586e+02
-4.082055134218485364e+02
-6.739674017199317859e+02
3.985346458347570433e+02
9.425544983183157228e+02
1.361379750094772589e+02
-4.529408839938679421e+02
-2.703168291439502582e+02
-1.040108271843941736e+02
-1.378871147591276554e+02
-7.617052717259831240e+01
2.037198848394205868e+02
4.059887666840024849e+02
6.076545486004791741e+01
-3.402741439974622608e+02
-5.480930147059658708e+01
1.920566791866962149e+02
-1.885038940775887397e+02
-2.603022462936974648e+02
1.277466775786190141e+02
7.124825831598353432e+01
-1.020737234942008769e+02
1.459283092114446845e+02
1.202220149170960894e+02
-2.630696019770039698e+02
-2.121866577270581899e+02
1.091912075651523679e+02
1.909576868070073772e+02
2.531019109979760628e+02
3.355138090173684873e+02
1.484277760562775939e+02
-1.637517402876925132e+02
-3.336448156544374228e+02
-3.421244419998572539e+02
-2.282044191325647660e+02
-1.243781067585370863e+02
-1.261007401229300342e+02
-7.086865527316513180e+01
1.426979307946483004e+02
3.420423787994496365e+02
3.619624835632278064e+02
2.466532395282050345e+02
1.261270317114447295e+02
-1.496348677262424864e+01
-2.190869846940034620e+02
-2.744337086515553210e+02
-8.325988390550391216e+01
1.206720345378610304e+01
-1.411897141013897681e+02
-2.462418754033443236e+02
-1.859350799207089437e+02
-7.014380419309651415e+01
1.043218165049265593e+02
2.811285371232222019e+02
3.493441350679209449e+02
3.231209272503978127e+02
1.774062222444503334e+02
-5.767431539042083699e+01
-1.788217343209438184e+02
-1.970580358810964583e+02
-2.673837925245678093e+02
-2.813046975059461943e+02
-1.705036500006433471e+02
-7.557698388031880654e+01
2.350556801916197003e+01
1.535567886044529189e+02
1.759445632575133232e+02
1.432607333844904360e+02
1.642906404203079944e+02
1.237230435314245653e+02
3.290682926830140076e+01
1.645392768642195591e+01
1.284346809865147598e+00
3.826990824456655282e+00
9.314120088386991370e+01
2.724679157473273250e+01
-2.344957228397442748e+02
-3.561843703785183948e+02
-4.023161346076598193e+02
-5.352737562248661334e+02
-3.266792833456091785e+02
3.094882447426659837e+02
6.793740105488670906e+02
5.936484157945554898e+02
4.864240981938506820e+02
3.147966968394748619e+02
-1.033620213603317808e+02
-3.849541100192270733e+02
-2.784713739708514026e+02
-9.710226049549737581e+01
-7.327580724467391349e+01
-1.183428674867581947e+02
-1.508148650231282204e+02
-1.783376119919481368e+02
-2.074214150513203947e+02
-1.918817830052261684e+02
-7.027061679780226200e+01
1.050030432974089081e+02
2.395952649670875303e+02
3.365642420573403797e+02
3.759301315410922939e+02
3.028411006434853334e+02
1.701125580047052210e+02
1.348486209789472667e+01
-1.826988174277263113e+02
-2.948330131435712929e+02
-2.511579101211900991e+02
-2.119097404773248172e+02
-2.173731670490523129e+02
-1.262917998078876280e+02
9.908295685095854566e+00
5.573866966060354144e+01
6.974753114589128700e+01
1.034114564537641030e+02
9.206887501991468525e+01
4.651813072924015557e+01
3.419417774876326632e+01
6.452945779118508085e+01
1.139410848659662179e+02
1.296821274646138136e+02
7.029279628579659800e+01
-1.383507575825763070e+01
-6.691000385332166900e+01
-1.093300467784207513e+02
-1.469635609157992064e+02
-1.508171424653606323e+02
-1.294326004756284760e+02
-1.039321362142241583e+02
-6.025052407897425155e+01
2.032977536605632096e+01
1.130995680405729189e+02
1.596181875494897611e+02
1.391758924246892661e+02
8.955591571263288131e+01
3.846837321126805165e+01
-1.330784338822201818e+01
-4.749505919326467307e+01
-5.059891981051727328e+01
-4.797900236678719921e+01
-6.188363068629617203e+01
-6.918904961250045460e+01
-3.752112208470131804e+01
1.293707194656227699e+01
3.496106535874815791e+01
3.109571300636867619e+01
2.131314246194730444e+01
-1.184095554739689327e+01
-5.090332537465389606e+01
-4.200559288603243857e+01
-6.027019183011045556e+00
9.169670680225440407e+00
2.192496815927835740e+01
3.898801192214362743e+01
3.672218145509523168e+01
2.983684261476643940e+01
1.641374429414524982e+01
-2.350010848442790490e+01
-5.024157684106046418e+01
-5.052388570675705637e+01
-6.027018233482810672e+01
-4.000078520319878095e+01
2.912305454046457243e+01
5.015988379792673868e+01
1.152781059801109365e+01
3.332743653988234023e+00
4.964661907467971425e+00
-2.838557029600109871e+01
-3.075685361703289544e+01
1.440424171198917591e+01
3.253888599059674647e+01
9.086103766854744634e+00
-1.260694490073283447e+01
-5.243193556457252491e+00
1.894540243240087563e+01
1.134270368238498605e+01
-2.330588046498835908e+01
-2.821639503245006608e+01
-3.376612717958523291e+01
-7.744263439491002998e+01
-7.110792828683210587e+01
1.068061875135511585e+01
5.655188168282217021e+01
5.040923448108316762e+01
5.483001043602769187e+01
4.309974383861680280e+01
3.719843082653916611e+00
-7.962032050788915072e+00
-3.368407905808867397e+00
-1.743276633008206744e+01
-2.848595444606284488e+01
-4.201093000046628845e+01
-7.109787838329077658e+01
-6.403771058854250953e+01
-7.414469388438814867e+00
3.464230415931886853e+01
3.952122693885296911e+01
3.519374394132872652e+01
2.635690553638259104e+01
7.595732779374275268e+00
-9.573801538282332046e+00
-1.564716720100645730e+01
-1.518503697304526767e+01
-1.928920839880061067e+01
-2.875562480925442088e+01
-2.805117100599450808e+01
-7.372095751628299887e+00
2.204880334530746566e+01
3.617552788336647041e+01
1.915235715802769434e+01
-1.079499167717756514e+01
-2.337900941647116326e+01
-2.351926987926592005e+01
-2.429607692616335157e+01
-1.047215556026153038e+01
1.860966798796269472e+01
2.970490174773752656e+01
1.221904532574337132e+01
-2.393971017823512071e+00
1.160875799474847092e+00
-1.000977634043166375e+01
-5.374040267474094890e+01
-8.209032617522865394e+01
-6.054749491803038808e+01
-2.545395448658737791e+01
5.216646300571227357e+00
4.774169848218333811e+01
6.956146540454402327e+01
5.305433849756020237e+01
4.896159894467817253e+01
5.784828323182336618e+01
4.121750015125272881e+01
2.551929121107216503e+01
6.855995863395160761e+00
-6.956549075002129712e+01
-1.471026133410734928e+02
-1.392587217656650580e+02
-9.452824901453006134e+01
-6.098644562184833973e+01
-9.549399841819930401e+00
3.603869025935101433e+01
3.668418644068562884e+01
2.708646319281270110e+01
3.946556454562669813e+01
7.261455412668877329e+01
1.096178784498674901e+02
1.085928353714443659e+02
8.065172437836984898e+01
7.632752868565370363e+01
5.153215464667695755e+01
-3.566014501857858221e+01
-1.229694876458942332e+02
-2.075641947023784724e+02
-3.092772944777959196e+02
-3.069266022397284814e+02
-1.505602541816774078e+02
3.167808502585214114e+01
1.971889697700106296e+02
3.426025359118753499e+02
3.326793659048070140e+02
1.626897811868551571e+02
1.988225635983514650e+01
-5.839660170196319200e+01
-1.323131732029600585e+02
-1.350395049080989338e+02
-6.114593788264773622e+01
-3.378155442022836041e+01
-5.855137400185383001e+01
-5.440072273379608703e+01
-3.345067830888959293e+01
-2.807180797578788756e+01
-1.754734583939088566e+01
6.237242949435530370e+00
2.510058562352155320e+01
2.496548987279222942e+01
1.518033391114540009e+01
1.738280824713041639e+01
1.870605969816301695e+01
8.891597628888437299e+00
2.369932583441075025e+01
5.485637331723826549e+01
5.117507541299512042e+01
2.864480671369335596e+01
6.297276718492639702e+00
-4.657615705162785247e+01
-9.428218404410536380e+01
-8.757168369651094508e+01
-7.381959187726472749e+01
-6.176635147937386705e+01
-7.868910388505370612e+00
2.955655217506298271e+01
1.173531825964638209e+01
2.030081316476400843e+01
5.337457223390860861e+01
3.512553645522753243e+01
1.184832435804276329e+01
3.166570822157725473e+01
3.062699700521663004e+01
5.559721381163473808e-01
-7.052290719044684408e+00
-1.443020133381736159e+01
-4.375862071371395245e+01
-6.141132048076162420e+01
-5.507103688749151615e+01
-2.748067171024334954e+01
1.330477251577977427e+01
2.590340975939487933e+01
4.418733383158886419e+00
-1.008233968594389118e+01
-1.761836029135455917e+01
-2.030426926888091543e+01
1.265457497611473592e+01
5.117071943056983230e+01
4.608467552453099358e+01
2.543286933981854858e+01
2.433045587162641077e+00
-4.306206729483007223e+01
-6.109947339270103583e+01
-2.808705373950767736e+01
-2.137515175032113746e+01
-4.042698779778416451e+01
-1.001434688759431602e+01
2.575567559630700742e+01
1.225176177505314712e+01
2.272548463746978342e+01
6.001424321529099615e+01
2.433893584937117183e+01
-4.449088755762136316e+01
-4.112353687769429911e+01
-1.332599445429795537e+01
-2.014592820378164006e+01
-8.721006182990212352e+00
1.696800735715030939e+01
-3.776650808717781693e+00
-3.127308455689581024e+01
-1.273977660726017547e+01
1.034308272144414431e+01
1.056956146717108957e+01
8.395314942973865158e+00
-5.628108169047267850e+00
-3.139044612670141987e+01
-2.738875841117492271e+01
5.652867698133793084e+00
2.694108758706578755e+01
3.539104850675846592e+01
4.112264257613425400e+01
1.682284639368675272e+01
-3.775518246551721546e+01
-6.313521638657842061e+01
-4.378045168314774571e+01
-3.909646060278388546e+01
-5.054816556825486629e+01
-1.315404253520172873e+01
4.797717527019621997e+01
5.501503363337371866e+01
3.757932753218516098e+01
4.207124182500963627e+01
1.573375825426929175e+01
-4.710064741874385419e+01
-6.288162534742165377e+01
-3.009735712334965285e+01
-1.012507315632180038e+01
-4.080256360497909185e-01
1.122259334057436142e+01
9.135670457012196266e+00
7.918193624727408952e+00
1.124097938130974939e+01
-1.241289809649408227e+01
-4.571897423445083319e+01
-4.416037632609366170e+01
-2.097334343204416029e+01
1.319062519882781004e+00
4.178132385457590914e+01
9.322278981267453446e+01
9.005453692542370447e+01
3.541322071235980751e+00
-8.851300456442594111e+01
-1.070894061786922578e+02
-8.187476131398770463e+01
-5.374596404784325188e+01
2.207177294382768551e+00
6.047488301645739028e+01
5.059619951206267530e+01
4.942235737111128735e+00
-6.576866263017125291e+00
4.787719374048130305e+00
2.184424325684062396e+01
3.681901193473925105e+01
1.475040243195990897e+01
-1.419877652901272569e+01
4.066106717692523631e-01
-1.800573131572523522e+00
-4.667715837086471709e+01
-4.335538213177529343e+01
-5.329677291273227091e+00
-3.019101000139189139e+01
-6.800319385591630805e+01
-3.929004416580937686e+01
-7.378853431297094367e+00
-1.787086951175271565e+01
-1.571683762751825064e+01
1.908087803721504372e+01
5.602212989208607752e+01
8.588686891920637834e+01
1.101231175159904865e+02
1.208205818389586597e+02
1.017444618283619207e+02
3.635382218772109297e+01
-6.538063389853860485e+01
-1.728073264387718950e+02
-2.525761956719015018e+02
-2.668607082806740323e+02
-2.047818994267118171e+02
-8.247424276624282413e+01
9.259566792853806305e+01
2.631898084141216714e+02
3.190974653009283770e+02
2.478151191151653734e+02
1.301940005686958273e+02
-4.115052704126073380e+00
-1.320120375074194783e+02
-1.815528211899844564e+02
-1.515175512621414384e+02
-1.022483522184658966e+02
-4.569228199381227284e+01
1.386157408184572226e+00
5.611725144227707851e+00
3.433352853917256198e+00
2.228775955946496623e+01
1.697401409608146139e+01
-3.589733328896006270e+00
1.571769186398022811e+01
3.915619646450406321e+01
1.464525053020201284e+01
-1.405445239087618248e+01
-9.038544259015484528e+00
-3.841474940904705981e+00
-9.087420576563982166e+00
9.769353889171465966e+00
4.764775785695566412e+01
5.365987555755827998e+01
1.555924519857251731e+01
-2.699889447668701692e+01
-5.369584133888486832e+01
-6.976207731032373260e+01
-6.418930473677525583e+01
-4.078876570243527055e+01
-3.215542728954346074e+01
-3.400256494946400210e+01
-1.826554480293962257e+01
4.615548567166541716e+00
2.763629783197606571e+01
6.438465486860221176e+01
8.982872796885672528e+01
7.829011296764355166e+01
5.244286458134123308e+01
2.214877073844775879e+01
-2.032079509847805099e+01
-5.366974970306798554e+01
-7.196259028120518053e+01
-8.950158689584804961e+01
-8.300577602424013435e+01
-4.548190047477615394e+01
-1.853675349893975621e+01
-2.654333509693439730e+00
2.445954594719544062e+01
3.335889200404524502e+01
1.751352933519669364e+01
2.490031284496132358e+01
5.463026421759791162e+01
6.127916084698902921e+01
3.930433792467972864e+01
5.134346507636196932e+00
-3.343697456870113172e+01
-6.149411474413844303e+01
-6.648393567694027695e+01
-4.560995558620587076e+01
-1.305210439812459455e+01
-6.099171060895011820e+00
-2.431056140998378368e+01
-1.952490317944736731e+01
5.456242174091924468e+00
1.406195141072863919e+01
3.004079787759590303e+01
6.330694406433800481e+01
5.431553823310990481e+01
1.674993685337648586e+00
-2.901419200389486264e+01
-3.649384773199079035e+01
-5.116046014915254858e+01
-5.146835783199899339e+01
-2.564319462930500038e+01
-4.113644733213140725e+00
3.201035958104737844e+00
1.300060024743255305e+01
2.636529302179667056e+01
2.702620919053708448e+01
1.183746011243212770e+01
3.880417695384695165e+00
1.183278866837795107e+01
9.196235075568582218e+00
-7.050375236469959894e+00
-1.821410697138428247e+01
-4.371284341931593787e+01
-8.301133026778057911e+01
-7.763246533077477807e+01
-2.311694767548117824e+01
2.430929725368321215e+01
5.883472914134082998e+01
8.799806837711034291e+01
7.521397027829695503e+01
2.241738818158047408e+01
-2.216079296934800169e+01
-4.076830306266269588e+01
-3.524890691836608880e+01
-1.851279118663038048e+01
-2.179848265567695620e+01
-3.828745588878089023e+01
-4.069936090036281229e+01
-4.383759350631485319e+01
-4.506364322765973895e+01
-8.279814569272438973e+00
4.202241920588481605e+01
5.858524422767033002e+01
5.621003231706448133e+01
4.976460273275987589e+01
2.688094678762091050e+01
-1.126739008079452375e+00
-2.340728636640724147e+01
-3.863225885437780960e+01
-3.214231470771006371e+01
-1.964786779889161750e+01
-2.651433298375473413e+01
-2.443299028074045509e+01
-8.473294659495511638e+00
-2.329551208728991796e+01
-4.659702028833200416e+01
-3.298405583922368578e+01
-1.669051372603871997e+01
-4.983517012661168977e+00
4.662629176553981125e+01
9.458208779058406890e+01
7.619580869213510255e+01
3.670554715855890038e+01
8.383624547954291018e+00
-4.045966273063199736e+01
-7.243608631661578556e+01
-3.825829076333253909e+01
1.816584261491449581e-01
-1.013216086872556154e+00
4.167276598955423239e+00
5.621557419157736213e+00
-3.852535590869440796e+01
-6.498492519002579115e+01
-2.845127955981175916e+01
-1.183211229463282166e+01
-4.300945955065243709e+01
-4.198083291562622321e+01
-1.010076600973690830e+01
-2.760652685407434248e+00
1.691605937671862137e+01
8.324463639757428268e+01
1.432467185287720497e+02
1.567793196088485672e+02
1.288598005271940110e+02
7.942750007304273652e+01
2.785132863277385340e+01
-7.369544088037096685e+01
-2.551203410214832559e+02
-3.738792267723394502e+02
-3.248599962543575543e+02
-2.146594059646360790e+02
-7.166824907709739989e+01
1.841542926209745588e+02
4.003916131769476010e+02
3.745353904418363413e+02
2.122489242776343872e+02
7.108172227452749325e+01
-5.146894926709815365e+01
-1.151101987249888907e+02
-8.438694732493701167e+01
-5.114428950743744906e+01
-5.117403103369220929e+01
-6.760306806166545357e+01
-1.405938069502567487e+02
-1.941525587325985214e+02
-1.004052950151753123e+02
3.079920966727898346e+01
5.854119176963593674e+01
7.278998114467468383e+01
1.251473694206160445e+02
1.106677566822664005e+02
3.404325759576720856e+01
1.419496310528200134e+00
1.245679346144445887e+01
-4.952352455643097784e+00
-6.213948725754782032e+01
-9.071073518110269163e+01
-4.040033166343985016e+01
2.732091640096425778e+01
4.674133544037911037e+01
5.770666272832453103e+01
6.417043536291966177e+01
-8.346045210470869335e-01
-9.525640680304184116e+01
-1.268776480070818451e+02
-1.122008928153819198e+02
-7.416446724703470750e+01
2.058288580543281121e+00
6.429971904613177003e+01
7.236138488502160726e+01
6.765644903625415907e+01
5.169336719234807020e+01
2.911110446625860604e+00
-2.306754223186888453e+01
4.526291750222614318e+00
3.059915278396363192e+01
2.597851534217353020e+01
6.071980378505723586e+00
-1.987817778772712174e+01
-3.920836141197691660e+01
-5.055555768468401823e+01
-6.028031260962109883e+01
-4.224707339402780093e+01
1.311456540113431934e+00
8.679221285826503873e+00
-2.003745868302116406e+01
-2.109549599954924304e+01
-5.400150877012860562e+00
-1.608152734217529911e+01
-1.767258568243858008e+01
2.311529125875844315e+01
6.422488071457688363e+01
7.108153747987208249e+01
6.066687106724216250e+01
4.732840614438693194e+01
1.486983902127200352e+01
-4.836983536602310352e+01
-1.042119403880436153e+02
-1.008072668138506742e+02
-5.857951949217375898e+01
-2.426100614949715251e+01
1.719849830939257629e+01
6.094958719895423371e+01
4.656137328880691939e+01
-7.123654428735407329e+00
-2.936375167350867343e+01
-3.610061239161714752e+01
-4.292048651871714071e+01
-7.514654306666646022e-01
5.860028019269910970e+01
5.711105225485013648e+01
2.822167175206265455e+01
1.196902558781289017e+01
-3.015114563952036875e+01
-7.185385312320602225e+01
-4.536188203417536613e+01
6.342319690031975377e+00
1.602684119059847490e+01
9.433052939136887360e+00
1.432892176257654882e+01
4.606569909245374461e+00
-2.373461445252235436e+01
-3.057044366047747275e+01
-1.312859373120644157e+00
1.650441388037525314e+01
-7.462778015597278269e+00
-2.661139887618330846e+01
-1.757979647592840422e+01
-2.011108626722824155e+01
-2.196721321429259177e+01
1.239380055754359233e+01
3.837513048353044809e+01
2.794566665721527698e+01
1.945683165476516763e+01
7.581988321810116283e+00
-2.162035363803638077e+01
-3.280729292639439620e+01
-3.264125885851142073e+01
-3.513787044542986138e+01
-1.115297116648516607e+00
4.043157873774944022e+01
3.091043830820566640e+01
1.710670042645021383e+01
1.252433971800521206e+01
-4.008340254231170974e+01
-7.818113174689510458e+01
-3.677733062447504864e+01
-8.668840327613535734e+00
-1.692636858806062961e+01
2.188058216410238543e+01
5.784648615372746860e+01
2.355499507877156873e+01
-3.656034457934842052e+00
2.845930915616918355e+00
-1.576718994468898671e+01
-3.777938776977174484e+01
-3.167651145601766061e+01
-2.026811220945360859e+01
6.605940383976826702e+00
3.784174960988799796e+01
2.302923149154834448e+01
-2.914124557421384765e+00
5.762582391715403318e+00
4.857231022610779547e+00
-7.855141745902572303e+00
1.204338793245267425e+01
2.302898674749548746e+01
-1.711414409274654247e+01
-6.408903545303550686e+01
-8.395637419281825942e+01
-7.158109028884992142e+01
-2.895133275731475919e+01
-5.304427311094583430e+00
-1.569235250159560024e+01
1.595324631188178799e+00
4.051156454139326257e+01
5.157950618719173974e+01
7.655883615388171393e+01
1.284651973084049814e+02
1.244460179470143970e+02
6.232705043555085211e+01
8.889240413781035244e+00
-3.576030284226256128e+01
-7.373428196030150161e+01
-1.067348141641795820e+02
-1.945133845607515468e+02
-2.958379944590781747e+02
-2.769036454650960195e+02
-1.597108406963326672e+02
-1.351732838421639293e+01
2.170708477348787824e+02
4.511506772384822170e+02
4.622371793056270235e+02
2.777769802147779501e+02
9.231977938903858671e+01
-7.512360414199260106e+01
-2.295302061049789017e+02
-2.728900145639198058e+02
-2.200340106007084273e+02
-1.648329644921474824e+02
-1.129816316449447271e+02
-6.794867573814877915e+01
-4.124638663552078555e+01
1.696858436207836718e+01
9.232828038973337925e+01
1.103134447458886740e+02
1.041234634327312421e+02
1.240315655255244991e+02
1.175524083341151709e+02
6.118468275081156094e+01
2.799815940866043462e+00
-3.775396043118233536e+01
-6.901673142255867788e+01
-9.828876646759368896e+01
-1.103652853292160927e+02
-6.321536112104184468e+01
1.051144851838138905e+01
2.300283246313055230e+01
6.284374980061294025e+00
2.454688279662325456e+01
1.019396990550989557e+01
-5.727053862840787701e+01
-7.328972553276548751e+01
-3.240250338029577648e+01
-1.405286848066825023e+00
4.498175842272638647e+01
1.043268440058038209e+02
9.984840911272465291e+01
4.215696197632563269e+01
-1.090787299151333656e+01
-6.084408158571373804e+01
-8.860562924740563062e+01
-5.960748722453079296e+01
-1.166175428333203534e+01
1.411961710526418656e+01
2.354131619717997737e+01
1.283646858562792303e+01
-1.117718708108713344e+01
-1.369286185032985514e+01
7.440989284634635936e-01
2.229093536581918222e+00
-1.333668298050665335e+00
-2.269407261057553526e+00
-2.334793113999119285e+01
-5.779243966542831146e+01
-5.955751539128866767e+01
-1.961567451479203683e+01
1.728364422718938442e+01
3.474984468855278408e+01
6.398934822170533465e+01
9.093872377236372984e+01
6.015800050929111364e+01
-5.997246332713292993e+00
-3.387888359425265605e+01
-2.918375048944287542e+01
-3.942375092813150417e+01
-5.067065660566164098e+01
-4.120601183852943450e+01
-4.028380497987121345e+01
-5.683442158573257075e+01
-5.141776219942995851e+01
-1.045102526600346771e+01
3.314496272768149510e+01
5.558122984344484507e+01
5.737349177109067000e+01
3.818970140207903796e+01
1.032334548152880416e+01
1.927588581158969028e+00
7.429949117117997659e+00
-6.862769579220504568e-01
-8.568096675343532809e+00
-1.778267384512869143e+00
-1.398492115133192470e+01
-4.013357151198621153e+01
-2.635636133767753364e+01
1.082833763899063051e+00
-2.178773212349448585e+01
-5.767151375023767912e+01
-5.293808308330913093e+01
-3.486045627147720438e+01
-9.817635319551248685e+00
4.561354418868700122e+01
8.285164776924298735e+01
6.180462739242676662e+01
3.112941262053040603e+01
7.387264166993536385e+00
-3.657476355085270114e+01
-5.443833888230592777e+01
-1.162023660469761310e+01
1.510847499514993331e+01
-9.827461876683132758e+00
-1.359132922140195987e+01
1.209887456700453612e+01
-4.124494964383974782e+00
-4.388900301385399416e+01
-3.407621180362774993e+01
-4.416885817473537479e+00
-2.312297041644750806e+01
-5.160689307212879839e+01
-2.213241339616098813e+01
2.625604752038362832e+01
3.337425392055815365e+01
3.364812397226118890e+01
5.800583169043844123e+01
5.784659062820964692e+01
1.887258593281607233e+01
-9.319349715787099697e+00
-1.936882883826941537e+01
-2.950841244281293996e+01
-2.976552840709946324e+01
-3.638285062446649931e+01
-6.442129855714460973e+01
-7.132601040569524287e+01
-5.201997783466860881e+01
-4.213639072152351162e+01
-8.259952751662936521e+00
6.018590523443617712e+01
8.182833573403166838e+01
5.358984697821551890e+01
4.555973849835018541e+01
3.971325594367975498e+01
1.988710491478580167e+01
2.708478121164936425e+01
2.077314676430724205e+01
-3.328001157089988027e+01
-6.121015925898436194e+01
-6.663199246865970338e+01
-1.063511317752511047e+02
-1.030705833492859824e+02
-2.892527703403768768e+01
-6.836038727169014173e+00
-2.939912545960104850e+01
8.246933856718671407e+00
5.082589393399297251e+01
3.983780554314044764e+01
5.443055059177873289e+01
1.055803583608687433e+02
1.234719876571895441e+02
1.146251390499228791e+02
9.999487565347510554e+01
4.945087635381025848e+01
-5.915307922729284940e+01
-2.145339372668776434e+02
-3.391989848106974250e+02
-3.332096815742477247e+02
-2.127432739272100548e+02
-4.203305117449613704e+01
1.713554252698876041e+02
3.376442619945166257e+02
3.209856435332282558e+02
1.825162102288298911e+02
6.829146789646765114e+01
-1.876123025035574443e+01
-9.421441296864847459e+01
-1.006199444961224430e+02
-5.172050060936643234e+01
-3.177691141530987906e+01
-6.502516415189319332e+01
-1.035426892091705895e+02
-1.004629657354014398e+02
-7.708534213940248492e+01
-7.477749379237519634e+01
-4.868109421909532131e+01
4.202925564953959991e+01
1.227013831722027675e+02
1.401955602532606804e+02
1.305200339570139363e+02
9.298551169317850906e+01
1.098311102955659990e+01
-6.799197604765957692e+01
-9.987315959711195035e+01
-7.267817507029761259e+01
-6.516806863627088831e+00
2.073665232938950354e+01
-8.069170210521097175e+00
-1.487457587012574578e+01
-8.831745727326433482e+00
-4.101315460460008211e+01
-4.493425389080997689e+01
1.878145764418188257e+00
7.744471369566735319e+00
-1.799651668750591682e+01
-1.160590126199382510e+01
-1.036173010132839423e+01
-1.805772397425915443e+01
1.098071042110279727e+01
3.091942243498369081e+01
2.003321152108305725e+01
3.968302333362272094e+01
6.596768666454764229e+01
4.464439885145021947e+01
1.702576368943667262e+01
-2.949284668639293727e+00
-4.662840687464384359e+01
-7.591419260843176176e+01
-6.622505776456458193e+01
-5.565666059899951534e+01
-4.116481350835111641e+01
-1.605517997811870501e+01
-1.529267648287009962e+01
-2.036420045692078418e+01
6.238456675151795139e+00
2.865657364885357694e+01
2.169702177847961977e+01
1.871565727550669322e+01
3.079809170185968981e+01
4.388939660279497446e+01
5.393451305752950020e+01
5.096365173483528110e+01
3.190053086637951552e+01
4.484271391008237906e+00
-3.636227501425896946e+01
-7.867428627411244690e+01
-8.621702687698278567e+01
-5.876797714701540798e+01
-3.769966267784545266e+01
-4.579901366885202663e+01
-5.732849777227868060e+01
-3.607001074196201529e+01
3.545847092981422755e+00
2.639623239608141603e+01
5.394383889469330029e+01
1.006809649644071101e+02
1.058881219160999052e+02
5.929538241994868031e+01
3.791899359350039589e+01
4.052102511535756690e+01
-1.953322553578039411e+00
-7.141180883394025614e+01
-1.104596513911701692e+02
-1.202001864537199225e+02
-1.064371482787086336e+02
-6.425047738390820484e+01
-1.962480034692413966e+01
8.556488953426063304e+00
2.496536465971254160e+01
2.868158215851419257e+01
3.774888164897667764e+01
7.734547988791037199e+01
1.173285458535769834e+02
1.061966928552823930e+02
4.507841588651179165e+01
-2.825139676059842841e+01
-8.522864126176339994e+01
-1.118034128543039571e+02
-1.007635633698659916e+02
-5.963395625350088380e+01
-2.248517242383193704e+01
-1.452148262715966354e+01
-8.379722139250613822e+00
1.843330927739279801e+01
3.648013564561938438e+01
4.075259753409304153e+01
5.199052747768473637e+01
3.711796616676546989e+01
-1.225036526309422769e+01
-2.299101873008962116e+01
4.896597208767982323e+00
-9.550607636921906618e+00
-4.006476668244209804e+01
-1.441628964023634651e+01
1.574796737592365403e+01
-3.139812736730005049e+00
-1.105046522976086010e+01
1.792480448610591637e+01
1.551798897921201359e+01
-4.015094776074467120e+01
-8.016800764257486378e+01
-5.460198796864514748e+01
-5.009201713192677374e+00
7.744258959055433600e+00
8.952253682807288726e+00
4.074039561307025537e+01
4.781713048406665933e+01
-4.088511996322896636e-02
-9.882556065310573956e+00
4.223282037764925434e+01
5.124741009255989610e+01
4.695608501270055690e+00
-1.509396597923308647e+01
-2.012245460667191210e+01
-5.021504705751081588e+01
-5.676309097800748305e+01
-2.490114127689133028e+01
-1.274168745431243011e+01
-1.920953701932401003e+01
-1.210356511558886439e+01
-2.508344239146745736e+01
-6.745361763020737556e+01
-6.738435696892855731e+01
-7.827732684264373297e+00
4.276003601292267575e+01
7.395853628956349723e+01
1.240606005734965720e+02
1.517763698709024993e+02
1.041986132817233255e+02
3.418884386127531627e+01
-7.396832665752794966e-01
-3.121991168619801016e+01
-8.788303065786274715e+01
-1.609540637924109490e+02
-2.324878562872702616e+02
-2.549284824830328944e+02
-1.942968033318889240e+02
-7.943082279455794037e+01
8.555022015867248797e+01
2.899400155868398201e+02
3.896261602754810269e+02
2.888002985849678339e+02
1.244959794962153694e+02
1.254616339433160022e+01
-1.016639066155428992e+02
-1.970632169812384973e+02
-1.773919622382470038e+02
-1.089798385798339382e+02
-1.034728947539952060e+02
-1.176777966378711113e+02
-8.547534846274062659e+01
-2.693603355715860914e+01
3.849496966716895940e+01
1.030375105864940934e+02
1.356938529077407338e+02
1.214472546536403144e+02
6.889017789047248641e+01
-2.380801516838925380e+00
-4.963719100657198879e+01
-4.477772892030436935e+01
-8.269419730747380015e+00
2.326781611962890040e+01
2.182790595088692598e+01
-1.509665232313883365e+01
-5.243889623188414362e+01
-6.801064872467894418e+01
-7.279600491331525802e+01
-5.212828773398149451e+01
6.187889283726352829e+00
4.409295618872864964e+01
2.269896890075927942e+01
-5.781381122073929291e+00
-7.554149201980561834e+00
-9.351890766960776702e+00
-9.274230670439688851e+00
6.689945356515633712e+00
1.441666146971338591e+01
2.107427918683766421e+01
5.846011633152053122e+01
8.660140131865209412e+01
6.242373542619227322e+01
2.030460204545625658e+01
-3.590744237923331639e+01
-1.329139796664580331e+02
-1.893625025411661227e+02
-1.217226036171549168e+02
-1.345856016306737502e+01
3.673026972522885103e+01
5.284552411989187704e+01
4.849414018264555182e+01
1.498851379179333421e+00
-3.223944990550661771e+01
1.043489495710462478e+01
9.472692029519450330e+01
1.505276612157678073e+02
1.341305108105966610e+02
4.352503801347118184e+01
-6.251859291796571227e+01
-1.271710736180232999e+02
-1.499524871483287427e+02
-1.314479038865638927e+02
-7.571964481882419307e+01
-3.252900341387999106e+01
-2.372431198735123914e+01
-1.587564918408125436e+01
-4.534102867819260752e-01
2.204675851150245691e+01
7.556380030848836782e+01
1.356081943144333479e+02
1.482166283331496572e+02
1.247305480942554112e+02
8.232478610848757228e+01
-1.019005522790095242e+01
-1.253841640277856442e+02
-1.750720670972370669e+02
-1.505350279666827760e+02
-1.095524675116801916e+02
-6.291687955997744552e+01
-3.238537238773928628e+00
3.399070112486208473e+01
3.155116284398372528e+01
2.674951439439166023e+01
4.610800038015769786e+01
7.547698735930140401e+01
8.670787549718458820e+01
5.764330727675662303e+01
1.049096081870049879e+00
-3.903613159069918481e+01
-5.164749303317773865e+01
-5.515902828687133308e+01
-3.661308533933096498e+01
2.131708787263310256e+00
8.560661070479985923e+00
-1.997680501265137210e+01
-2.968509916611399291e+01
-1.957376551538633436e+01
-1.223393000466698410e+01
7.624621382739910302e+00
2.997505475053915447e+01
2.540745033846270218e+01
9.163196684125225033e+00
-1.289133583036993613e+01
-5.261200782961676481e+01
-7.050559981182190938e+01
-4.567598134646815566e+01
-1.957827232644181237e+01
9.745289700162331314e+00
6.132912141147026830e+01
8.921209078924349001e+01
8.382401840722046416e+01
8.826220882646562416e+01
7.298453602707550658e+01
9.897099551242973803e+00
-4.133911944399572036e+01
-7.865386604704556817e+01
-1.536877068664273054e+02
-2.039055063082205379e+02
-1.561989793139410949e+02
-7.501802562879740321e+01
-1.430679778950121062e+01
6.283457888232868527e+01
1.392193838029154449e+02
1.489083147794858064e+02
1.121251867173821779e+02
9.200277693122217215e+01
8.365045783798271373e+01
4.595227055876409139e+01
-1.692851469512489970e+01
-6.177295303334832965e+01
-7.534103540040608493e+01
-8.548707847509348312e+01
-9.576102361079691150e+01
-8.102344270510343449e+01
-5.245214808994010980e+01
-4.245246343400425815e+01
-4.238282897896669965e+01
-2.625059659270841550e+01
5.394240833279348557e+00
3.600172396128659358e+01
4.621414129096107359e+01
3.834846277395476477e+01
4.621195604874723273e+01
6.846602159231620988e+01
6.312257977459137948e+01
4.596398950150179274e+01
6.129555622491514555e+01
6.955921330802934222e+01
2.695811361097449677e+01
-1.163163599471894116e+01
-2.095996391688995431e+01
-7.973034729359466155e+01
-2.057377811257514963e+02
-2.935010295591294494e+02
-2.721435001217984109e+02
-1.697764826594717817e+02
-1.156628614060057103e+01
1.951637901507011748e+02
3.637889983077526495e+02
3.724361128843418669e+02
2.348883349870361599e+02
7.719857817328207261e+01
-4.810152080252449025e+01
-1.482612214576452914e+02
-1.770262877735813163e+02
-1.294105285923956785e+02
-9.577496437863727863e+01
-9.878527094538006281e+01
-7.692615397937774446e+01
-2.779001682499947634e+01
1.442683759475695382e+01
4.965513118691866623e+01
6.424823861267313418e+01
4.073004656250933664e+01
5.212802793860859651e+00
-1.906075457301269438e+01
-2.274591125715380713e+01
8.775471435083403549e+00
4.582536952398773877e+01
4.759339779093285472e+01
4.365306896131610870e+01
5.146320826391163195e+01
2.244395289466750398e+01
-3.260863965254567631e+01
-4.853626638712636776e+01
-4.823495334793569356e+01
-7.582880830363184543e+01
-8.177171000899662090e+01
-3.612339978731535695e+01
2.512918436245140441e+00
4.443251579610732804e+00
3.896135416292687559e-01
3.812979635831971414e+00
5.992018366633298676e+00
1.035927080907952913e+01
2.837578770339905887e+01
5.860950846877673115e+01
7.046826434521328508e+01
3.664997177674379714e+01
-1.548113439163490312e+01
-4.233280523157922914e+01
-4.209524702740563384e+01
-3.747745319481862225e+01
-3.930293356468697397e+01
-2.512960670033209354e+01
1.816254258271151656e+01
2.659946472967166287e+01
-2.386162864791201699e+01
-2.342776776833537866e+01
3.312016797404416479e+01
3.447575358324847183e+00
-6.071525365916250649e+01
-1.797107373830968058e+01
1.643057462927151136e+01
-4.600037797197720124e+01
-5.625147519829126708e+01
4.348908355018443750e+00
3.354279388179999444e+01
6.972083159876126501e+01
1.060391953838129666e+02
8.306302359515834155e+01
7.104980182092208452e+01
3.830032068827800629e+01
-9.338280777786874864e+01
-1.480995760699622679e+02
-7.013806843622143106e+01
-6.764765508953142614e+01
-1.017971035087188056e+02
-4.405696966451088770e+01
-1.752772169170591354e+01
-1.998431184922180037e+01
4.720700692417234023e+01
6.596957687006076299e+01
4.195519620809070460e+01
9.180610251500364427e+01
8.389703549741156507e+01
-3.479974837679229882e+00
5.540218978590831789e+00
4.482769790002122789e+01
2.397538524290077078e+01
4.729183579039988317e+00
-4.690513111249646272e+01
-6.452806270939038313e+01
2.266416658111015181e+01
-2.142128825359067079e+01
-1.682198693841108934e+02
-1.117968366031036567e+02
-3.394194804979714064e+01
-1.112210782490124359e+02
-6.466294074030376748e+01
7.098348261420214556e+01
8.856632871990690603e+01
9.585121372407614615e+01
3.705534149828480395e+01
-6.294962411659867030e+01
1.079382431489337932e+02
2.731392555151052761e+02
9.884330439618304354e+01
2.499980343019368334e+01
1.038579651301590303e+02
-6.002012667981031058e+01
-1.839018769478129229e+02
-1.112094171865176548e+02
-1.486860572200098716e+02
-1.276504163025514202e+02
-6.822166088110022031e+01
-2.655008520906424678e+02
-2.370110681192838342e+02
1.182390797018888975e+02
1.032909284585017531e+02
-3.124135361267608602e+01
1.256432503560755549e+02
1.135868599809997477e+02
1.097315387589556792e+02
3.718825558003305787e+02
2.872153974128312939e+02
1.087174582284012985e+02
2.663248536279680820e+02
-9.415294780613596259e+00
-4.645378029274013443e+02
-2.210741261303034264e+02
-2.888990701107628922e+01
-1.608329125785210749e+02
-8.398629228113765066e+01
-4.539891108367663719e+02
-7.517177302823553191e+02
1.635145470681109998e+02
4.157007245721874256e+02
-4.977711953773826394e+02
1.925762606168049444e+02
1.228453624991825336e+03
-2.386112076710215035e+02
-1.124077230487037696e+03
7.168430651593004086e+02
1.610534411314902400e+03
6.415118166495741434e+02
4.659532991811348097e+02
5.302586830033758361e+02
-6.457752900692994444e+02
-2.062602522154540111e+03
-2.499057804163347555e+03
-1.348921268601653310e+03
6.382427586217590942e+02
1.364480943476506127e+03
1.019578629559966544e+03
1.133629811667069134e+03
8.081757173614867042e+02
-4.831922986757228387e+02
-1.075011740877195052e+03
-4.509612118003757928e+02
5.960052888739102173e+02
1.069684381136242109e+03
2.378588392447737476e+01
-1.046961606428349114e+03
-3.308717235963065946e+02
2.353255840055095405e+02
-3.726871629573853397e+02
1.930106649843742446e+02
1.491002568829999518e+03
1.003578040170683494e+03
-6.058411475821175145e+02
-1.654543918702799829e+03
-1.490597693093126509e+03
-2.855682432330886513e+02
-1.453556628531357546e+02
-1.051027348226763252e+03
2.552063180833413014e+02
2.155298450199399213e+03
8.630356609889323636e+02
-1.956295129396841332e+02
1.743736282796861133e+03
2.012568882759423786e+03
-5.455727243350604567e+02
-1.614260199539179212e+03
-1.104091443095634304e+03
-1.106563180941673863e+03
-9.945381773959703651e+02
-5.325303042633706809e+02
6.306406017988858537e+01
8.981404766005655347e+02
5.811605254951656434e+02
-5.941061633276001430e+02
-1.555959825105612708e+02
9.466935478510035864e+02
5.909508305448273404e+02
1.574981935636949970e+02
4.266326744255659946e+02
1.579477039320770757e+02
-2.631886750166018487e+02
-3.173510807846413968e+02
-5.329491133487155139e+02
-3.620341244264905640e+02
2.305046038198627798e+02
7.394774638010079570e+01
-3.792615497942276761e+02
-1.194896372945057976e+02
3.204207014176478765e+02
3.295393612838271906e+02
-1.034185347037995086e+02
-4.571720432941552303e+02
5.340037257995739850e+01
4.729324726517937734e+02
-3.114076180802346130e+02
-5.385411985204050325e+02
5.492973284745813771e+02
5.370964540698349765e+02
-5.855609151250506557e+02
-3.660076113504184718e+02
6.087635190249189918e+02
5.099022355253006822e+02
-2.092427230793510518e+01
-1.234528571061401294e+02
-1.052028773485666875e+02
-1.320243428872092863e+02
-2.694354274582325388e+02
-3.051464837186565546e+02
2.043100305742492537e+02
5.509163475549255509e+02
-1.082375837431379750e+02
-8.032452897440481365e+02
-4.853008103916374694e+02
8.778310821418644139e+01
1.205583003835988336e+02
2.076264234102775106e+02
6.531343215307708761e+02
5.639432733237624689e+02
-1.083226765148688031e+02
-1.830979248513827997e+02
1.703417819939754736e+02
-4.683332277269223454e+01
-1.801409788418371818e+02
9.501086893338619177e+01
-4.035831263572979992e+02
-9.460585016105316072e+02
-7.327232309136819310e+01
5.910818243410110426e+02
-1.267218709358819062e+01
9.699874563098131830e+01
8.183098272064622734e+02
1.524469167324465104e+02
-7.428615856447810302e+02
-2.512789509946407236e+02
2.051384796987933328e+02
-1.252809509998509157e+02
-1.272278112586112115e+02
1.667132208298120304e+02
1.911260465446478065e+02
1.780295765360141047e+02
5.678757161788804808e+01
-1.891228575095102826e+02
-8.320988824957247232e+01
9.526548734937290419e+01
-1.172414383349847071e+02
-1.990092975375138451e+02
1.202652730035791393e+02
2.301979633252283861e+02
-5.635033433636134248e+01
-2.313518729859255529e+02
-6.578510537927272139e+01
7.745050877332909067e+01
-7.487126781166809053e+01
-1.774815031837970309e+02
3.557283454978195181e+01
1.613250404024099112e+02
2.527996546054437488e+01
1.305332911980471877e+01
1.259285347152929830e+02
1.053941863174629674e+02
6.685370432663999907e+01
4.337562590968720144e+01
-6.685773130245613061e+01
-7.664965416271019194e+01
-9.326458990612245259e+00
-1.236909954330781005e+02
-1.579212984247648990e+02
1.297449847970652570e+02
2.606197124212089307e+02
-2.024751030990329070e+01
-2.825977621945096985e+02
-3.557262139598829549e+02
-4.141982494759678275e+02
-2.951383551255712518e+02
1.634540631252074547e+02
5.955107244534045776e+02
6.239313718614481559e+02
3.590995266965080646e+02
7.111994972704732731e+01
-1.241039460370467964e+02
-1.716617281745612331e+02
-7.807744464926652483e+01
1.580640963532458088e+01
-2.259194635467511603e+01
-1.788893594565248861e+02
-3.038194163120438134e+02
-2.326298535567165402e+02
-5.081179051719747974e+01
-6.183072769254118839e+01
-2.623093979754011116e+02
-3.297957400271650386e+02
-2.241397143128762082e+02
-6.242864267067602668e+01
3.503676733340506644e+02
9.815534540129254992e+02
1.191200225635800962e+03
7.152621958600828975e+02
1.333828546022123760e+02
-1.976270822044542115e+02
-5.658812277934983967e+02
-9.646361265340524369e+02
-9.639438739369950326e+02
-6.484489897134030798e+02
-4.771298866996701804e+02
-3.163647059174573428e+02
2.056683988701613544e+02
7.576514200405914607e+02
8.247986418666280315e+02
5.707319160231003252e+02
3.526417889827348517e+02
1.582032105794617678e+02
-1.759316001924823070e+01
-3.487520130905878091e+01
3.344980711745654389e+01
-2.686102473453065187e+01
-2.532523947929559540e+02
-4.880479765908667673e+02
-5.311206711135191654e+02
-3.395852218841456533e+02
-8.085587270891181788e+01
9.933248071865780560e+01
1.758198839635367108e+02
1.451847100948386071e+02
8.177040435158730247e+01
1.031606666676287176e+02
1.708452075270918158e+02
1.933778513609271954e+02
1.873572997875164390e+02
1.310613468888742830e+02
-1.341395063283560773e+01
-1.244747064081222589e+02
-1.143930826039507025e+02
-8.910153865757776259e+01
-1.122404335021055033e+02
-1.190549084102449058e+02
-8.939506644702589711e+01
-5.775098600959088913e+01
-3.714357520033379245e+01
-2.543690521157930107e+01
-1.052408348059563892e+01
5.942482548668006181e+00
1.217727325748255041e+01
4.272404840265273407e+01
1.152266226458579865e+02
1.621122976157118103e+02
1.404240627213334847e+02
7.365061264705435917e+01
-1.261937319869262808e+01
-7.389194096398999534e+01
-8.784736372438567287e+01
-1.018494255980618277e+02
-1.105325252739865363e+02
-6.949873304457662471e+01
-3.692702759756888753e+01
-4.715257365719349991e+01
-2.132377208725874596e+01
3.338498815812038600e+01
4.577030560628910649e+01
5.678576884629128330e+01
9.223160438129757210e+01
8.611707952034296909e+01
4.160493698437804255e+01
3.314948093374942673e+00
-4.356366757516955346e+01
-8.239578695000237474e+01
-6.807084638965520185e+01
-2.747788625573699761e+01
-3.584543719264988049e+00
-1.531334718906435022e+00
-1.865957248926653733e+01
-3.601647963017086340e+01
-3.650598197554416657e+01
-1.956311424112332276e+01
2.931946989835199346e+01
8.119496467148687202e+01
6.679556851923162242e+01
2.024665012258027375e+01
1.625265437161346327e+01
1.332413667072939134e+01
-1.633602094008847772e+01
-1.392972169796493453e+01
-7.478794362403522911e+00
-5.636256224044893059e+01
-9.152785796561299492e+01
-6.333378745420444744e+01
-3.162970628749199165e+01
-1.265444249689295830e+01
1.861845555066085467e+01
3.596008263913587655e+01
2.766798229274496990e+01
2.310905350949088444e+01
3.315902577013834929e+01
5.328080295258661181e+01
6.040657851035112458e+01
2.803059156345817726e+01
-1.147037987102622836e+01
-2.869153762795563622e+01
-5.509911623168405725e+01
-7.670711590932873492e+01
-4.978371596371458452e+01
-2.492393529660562024e+01
-4.224552138171566185e+01
-3.514984352700274428e+01
1.179639273846829717e+01
3.268259036956722241e+01
3.171886361373923080e+01
4.374630238449566377e+01
3.946202026113026307e+01
6.086182032256361119e+00
-1.655287887950245818e+01
-1.037569508092216708e+01
6.623966729942761589e+00
1.137063163214939721e+01
-4.203734399213487904e-02
-7.402774660102586779e+00
-1.301960884013569597e+01
-3.759991355749694719e+01
-5.101829760928151103e+01
-2.193531248534590006e+01
6.024240692148386422e+00
1.412934730543933703e+00
-1.817172343400309309e+00
9.293723433890104246e+00
1.197531378412664438e+01
3.498058783134491811e+00
-2.098417606193669016e+00
3.957279516770977779e+00
8.822902738309766235e+00
-1.148657259307726441e+01
-3.294212354963353562e+01
-1.706054038296439401e+01
4.033804719717188902e-01
-9.582786295773125573e+00
1.526158867345237091e+00
3.565022307616954578e+01
3.492524993028518310e+01
1.046029878092684484e+01
2.693763656695509212e-01
-1.078185823094798579e+01
-2.679674013488194007e+01
-3.191960551328930862e+01
-3.082381661322500577e+01
-1.452325198634628833e+01
1.430317301858752188e+01
9.651828225655108895e+00
-2.694339047914360208e+01
-4.736943199487107847e+01
-5.562575041890656280e+01
-6.190238643826133824e+01
-3.197345466079725540e+01
3.143439739480007944e+01
8.221089035492565245e+01
1.043943758701457369e+02
1.107620385150121791e+02
1.162238786521497360e+02
1.151314505482904167e+02
6.694373230284340082e+01
-3.992597765637808749e+01
-1.643240314755166196e+02
-2.809335247037494128e+02
-3.538475543376795258e+02
-3.011729532965124463e+02
-1.095092561973891634e+02
1.279469683285834236e+02
3.156739827383389638e+02
3.857180168967552163e+02
3.109591365883698018e+02
1.565803404857726093e+02
6.902801161200655677e+00
-1.117929267411792296e+02
-1.719772720982210785e+02
-1.600813853403775511e+02
-1.367416482406672742e+02
-1.356221233329285951e+02
-1.079374852104189841e+02
-4.018277999287385427e+01
1.995250709999984551e+01
5.347166958195381170e+01
7.274500033202626526e+01
7.800260734048029576e+01
6.233741001399398840e+01
3.096422461534628567e+01
1.172456055409668707e+01
2.168106203408915889e+01
2.494702414752043751e+01
-6.008730255742245951e+00
-3.275943018120111105e+01
-2.883189131913085035e+01
-2.353056277092199622e+01
-2.884396116697502066e+01
-2.530613376350411770e+01
-1.431451692755183913e+01
-9.921400374455181748e+00
-1.527546125080781536e+01
-2.850832784455223390e+01
-3.588804136032572956e+01
-2.829751463570813286e+01
-2.228004744987373797e+01
-1.342532624790261409e+01
3.201064528789116537e+01
9.323754366900877244e+01
1.035378475280381423e+02
6.436684677453936843e+01
3.055595686080051365e+01
-1.403490481322441141e+00
-6.125318455673922813e+01
-1.119511454320276584e+02
-1.065628227506436190e+02
-7.122684166693329644e+01
-4.273553261717841423e+01
-2.094444415813992766e+00
5.931702022379549533e+01
9.215637325648715716e+01
6.514020552667562924e+01
9.925393778431807590e+00
-3.757767294725746154e+01
-6.377511503662343273e+01
-4.976323159349081493e+01
4.345512431270153186e+00
5.655709510730441991e+01
7.694809410033846575e+01
6.273371960778424494e+01
6.639947145673475326e+00
-6.477855013691477382e+01
-9.215361020904649081e+01
-7.946525707625474411e+01
-7.115939374936047557e+01
-5.007484837916133813e+01
6.910098525064969799e+00
5.962212699908675262e+01
8.141703764652721986e+01
8.118711793508487062e+01
5.509905511954072921e+01
1.383430536345795403e+01
-2.566307949254827747e+01
-7.005959714402830230e+01
-8.421760313306596402e+01
-2.902485131529486040e+01
2.322947883841245797e+01
1.190212575997592204e+01
6.092072733097538162e+00
2.487209522534056561e+01
-9.458539935289397960e+00
-6.616655239985712456e+01
-5.267835218659784857e+01
-4.050627665593873772e+00
1.190484962662479340e+01
1.969793446766167833e+01
4.284633193463609757e+01
5.349041782791871213e+01
3.686932209164888263e+01
4.296901851087061353e+00
-2.299706122895273097e+01
-2.691851501949017944e+01
-2.462443927818976874e+01
-4.183680761349234700e+01
-5.546488961418330632e+01
-3.187825392125368396e+01
5.743180057425295360e+00
1.602666110856330306e+01
1.112702337640839012e+01
1.798565386505854491e+01
1.518393833838281815e+01
-8.561466456414450477e+00
-1.213290204502982306e+01
1.308015473072115142e+01
2.647455171277011843e+01
1.565831689264958726e+01
-1.515022944246454806e+01
-5.459680797582940670e+01
-4.888222146116955713e+01
1.242538025294369852e+00
1.626192319522318641e+01
1.364964247480385851e+01
4.940093791949860957e+01
3.869468249917860447e+01
-4.782647785856968881e+01
-6.783601151533942186e+01
-7.770458929845815099e+00
4.383647902482305625e+00
-1.127482318415411910e+01
1.030211073920427012e+01
9.701617126917915002e+00
-2.032088966245736472e+01
-1.835969736326864776e+01
-7.902308559786638043e+00
-8.970105819976485151e+00
7.802810671853098512e+00
1.411356471499999188e+01
-6.103986820259745372e+00
-4.495265595347784249e+00
1.151403725066626471e+01
7.062373156259485363e+00
7.079160271196919929e+00
2.196959052069318830e+01
3.243507645356451263e+01
3.322836813322050631e+01
1.279964687568590165e+00
-5.579102923454414054e+01
-7.512139891680021719e+01
-6.342412474434242142e+01
-6.633861183907279724e+01
-4.723125957351520299e+01
4.883705979598224722e+00
1.949673343165204642e+01
-2.561002716821441538e+00
-1.721125770551894085e+00
2.168770229595732957e+01
5.334005329730939593e+01
9.058774420707182173e+01
1.053897377819325243e+02
9.396766797564090723e+01
7.630546750667649292e+01
3.707896586215687051e+01
-3.669440703158829109e+01
-1.278710034127176982e+02
-2.180808542804312253e+02
-2.724159690622975063e+02
-2.519313372976166931e+02
-1.482287123927358152e+02
3.624329612972532288e+01
2.437240791775987248e+02
3.414155647500451209e+02
2.872936334359230273e+02
1.730085441723195459e+02
4.488044250737495133e+01
-9.928286344066810898e+01
-1.891886855775315723e+02
-1.686054689999102152e+02
-9.995786052768315244e+01
-6.248611057277017267e+01
-4.601158301628113634e+01
-2.922287925417498045e+00
4.806215039219094365e+01
4.746054715165415416e+01
1.721968927973668073e+01
1.449034378957229130e+01
4.445756639575526137e+00
-3.590735761858739750e+01
-3.952298341361752421e+01
-7.653794321490340558e+00
1.324890759859201239e+00
1.798691234754460666e+01
5.425699836366200657e+01
4.930302412038316362e+01
2.984622994984353284e+01
3.442268261115546579e+01
-7.015377459262062132e+00
-7.960429554539548747e+01
-7.375151965651454589e+01
-2.448462527744374739e+01
-1.268803619275901440e+01
6.605952593268087369e+00
3.828808039493586080e+01
1.147416026453185545e+01
-4.044951082530011632e+01
-5.106502663414242704e+01
-4.179195875384972680e+01
-1.772432218625855427e+01
3.338951136967762778e+01
5.393235687569692516e+01
2.407040586717926445e+01
9.210107624668150805e+00
1.403089202755911735e+01
-6.386776588365042251e+00
-2.003301069075173757e+01
4.611801109813716160e+00
9.754552737679869523e+00
-2.508612117435330902e+01
-3.356263576447476993e+01
-3.992542044134494539e+00
9.109515487667632527e+00
5.985538369685931670e+00
1.699424437620924522e+01
2.064277376165100009e+01
-6.321859864956347330e+00
-4.177140059047532361e+01
-6.090259318700334035e+01
-5.962624170861063533e+01
-4.698626575250460746e+01
-2.655376408006047484e+01
1.429786460884188770e+01
5.434299848388976528e+01
5.181164634218524867e+01
4.114355273958484105e+01
5.998236357477749436e+01
4.844975806719914857e+01
4.207151108607201095e+00
1.362911296544310247e+01
2.784619012075542699e+01
-4.307935906093116074e+01
-1.022419284648963185e+02
-8.345770880868838049e+01
-8.804447429051374741e+01
-1.057762195533403400e+02
-3.590566328140624108e+01
5.029745947032705544e+01
6.236977523705782289e+01
6.457564132358622544e+01
8.622519826637851281e+01
7.478893449784605707e+01
3.572673559038693014e+01
-5.197899388295469159e+00
-4.192374399465282409e+01
-5.356497818583875414e+01
-5.457091158523822827e+01
-6.405346446459473952e+01
-3.685491732630375594e+01
2.365968290644388361e+01
4.079660366894631807e+01
2.137274914446786767e+01
2.165010914065185688e+01
1.694505464766546510e+01
-2.143655097358892547e+01
-5.416435178567022035e+01
-4.870377234944353262e+01
-1.914126672929108963e+01
-1.065477403982996840e+00
-2.336242436451956728e+00
1.372949263173076773e+01
3.873943263045790530e+01
1.670830069326742873e+01
-1.807994734097052358e+01
5.500914099178010552e+00
4.152977609773962797e+01
3.233816804529688227e+01
1.545373966754590001e+01
1.545150873614683285e+00
-4.085393074570718852e+01
-8.339583439768632900e+01
-8.852624549280824340e+01
-6.332436048639757331e+01
-1.837653826141113456e+01
2.622508140773180330e+01
5.234994798780487457e+01
7.308154540668954269e+01
7.580429711657981784e+01
3.752605884938345326e+01
-4.334071229833602601e-01
-1.861878324167233956e+01
-5.629100319509466033e+01
-8.021789163034418380e+01
-4.022019370208929701e+01
-1.114124369293638672e+00
-4.933418009007040084e+00
6.146166649004053184e+00
2.502473889766230641e+01
-4.987673105643662730e+00
-4.000383558390475258e+01
-1.886953004232865538e+01
2.254791116158541442e+01
3.429124562176356505e+01
2.341307224762293160e+01
1.975488127445657227e+01
2.715011193479098495e+01
1.435057162350370774e+01
-1.643360082561874691e+01
-1.383091890286675074e+01
1.120749235449199688e+01
-6.999530666039222915e+00
-5.492422606193323986e+01
-7.791736572419446816e+01
-8.673413340444399466e+01
-9.507116978917706263e+01
-7.046318937948602468e+01
-1.954000352436247923e+00
8.109094923804900645e+01
1.362728029086669324e+02
1.369576756830373085e+02
1.107425950731524438e+02
9.223316552314193473e+01
6.128097343550175680e+01
6.634634241750605455e+00
-4.880391269831191892e+01
-1.183596370890832219e+02
-2.114281469181901514e+02
-2.680792818870364727e+02
-2.354136614809060291e+02
-1.141385306739609433e+02
7.095527865583292737e+01
2.436005305645432770e+02
3.016125780485710379e+02
2.301826965858532503e+02
1.030598770632973640e+02
-1.540851760421848660e+01
-9.953550516971070294e+01
-1.259898783891749474e+02
-7.898388964173689430e+01
-1.264867006549230055e+01
-1.699158205529876042e+01
-6.536078180638422452e+01
-5.791369311592396230e+01
-2.984209819250640194e+01
-5.582597250620742102e+01
-5.501553076697007327e+01
2.055005372451656598e+01
6.178774458132865277e+01
5.114365825538169474e+01
7.749578740343513061e+01
1.053897546424520186e+02
6.387437731821472653e+01
-3.004050196154595120e+00
-5.564291324595608756e+01
-9.349371107564272165e+01
-8.932450273968684940e+01
-5.474888624463966380e+01
-2.642295736154808594e+01
9.392388371437521144e+00
4.099917933498259259e+01
3.082331849657071388e+01
1.207155108483246408e+01
1.262980113212656974e+01
1.669117221435898024e+00
-9.468360972219008076e+00
3.959449907873556995e+00
1.080129501245594348e+01
4.358018311871340700e+00
-1.589266109122584147e+00
-3.333428005043017350e+01
-7.534659684986971229e+01
-7.147576697578661253e+01
-3.408779769371682278e+01
5.582527079775102763e+00
5.501923806461228850e+01
9.106346623180280631e+01
8.200952308395793011e+01
4.697643576810630606e+01
4.913859162458238394e+00
-3.293432570471501464e+01
-4.527525808995656575e+01
-5.221386959738784839e+01
-7.374279958052284201e+01
-7.121450859066933958e+01
-3.841780833930806693e+01
-1.186958863415153331e+01
2.202688639711499974e+01
6.316897974271267202e+01
5.358742599086546221e+01
4.814819390743086736e+00
-1.484678012275533732e+01
-9.925694960867641470e+00
-3.120764039890710606e+00
2.614661452868606162e+01
5.698325038470334647e+01
4.002859466228859731e+01
-1.164045628449124337e+01
-5.740581019338471691e+01
-8.466323948540676270e+01
-8.746777743242404313e+01
-6.244509709761321403e+01
-2.049026785460031164e+01
2.628928256901633986e+01
6.352738069483400807e+01
7.588660772926371578e+01
6.747879225181914364e+01
5.052950423575328642e+01
1.845112215970955916e+01
-3.823131013028441316e+01
-9.245445135780516921e+01
-9.765054782746311446e+01
-5.999839842328174910e+01
-2.630576324563406132e+01
4.936343584739297796e+00
5.220075692895171926e+01
7.236424959450749839e+01
4.065639865140455100e+01
1.023767424033379037e+01
4.562286706320915819e+00
-5.152389299835467895e+00
-1.613279853065592562e+01
-2.108407041999262432e+01
-3.026538509978845326e+01
-2.800367070140173098e+01
-1.957545292313412233e+01
-2.941173982953684174e+01
-1.631336244490898935e+01
3.138670095974325136e+01
2.736135729285251017e+01
-2.306591645830294723e+01
-2.091866658426494396e+01
2.972617673085216516e+00
-1.733068996719449473e+01
-1.237973085334590628e+01
4.164133937795375573e+01
5.432867119202489192e+01
2.254844044926307944e+01
5.080919259782538333e+00
-1.369333728454306964e+01
-4.193197739566314652e+01
-4.546499461241516826e+01
-3.145209285586756920e+01
-1.563691055016885656e+01
2.500926669017156989e+00
8.997855327671455683e-01
-1.240714246753341854e+01
-3.515946574657283108e+00
2.853792860103338214e+00
-7.732754592511574820e+00
9.685818751400255167e+00
3.657329939461127566e+01
1.504413345987837936e+01
-1.457292043260239467e+01
-7.165415130905961050e+00
-1.152471725929687629e+01
-3.359645597494780844e+01
-1.205118921236083906e+01
2.722739060350733808e+01
1.099265622377663476e+01
-2.946745468738464524e+01
-2.533608620228187291e+01
-1.055566320336245312e-01
2.197963310647536694e+00
9.940444377534664255e+00
4.075758544886222978e+01
4.056525863934027143e+01
-9.356862636420233414e+00
-4.163911703784916085e+01
-2.875948103031077352e+01
-2.978149985042355041e+01
-5.988067968801154706e+01
-6.475918122456276649e+01
-4.761947862178077173e+01
-5.071843418832896333e+01
-2.955856539174823894e+01
6.485946187936401941e+01
1.512777315742946200e+02
1.577236697371759817e+02
1.415011712171828151e+02
1.194839347100035383e+02
2.964250219970682565e+01
-8.315314708708393709e+01
-1.430641933723656791e+02
-2.079286772250283377e+02
-2.899920153334997508e+02
-2.690197123570620761e+02
-1.334027880649874760e+02
2.492634632412777762e+01
1.955907107711819322e+02
3.361907512385705559e+02
3.302644129458823841e+02
2.003198892972609713e+02
5.563042057958089259e+01
-7.946554511035621715e+01
-1.642692068181983416e+02
-1.432908334254753129e+02
-9.419142331644474098e+01
-8.896672303532733395e+01
-7.653316838419536339e+01
-5.428282961999747869e+01
-5.887129892015071420e+01
-3.316716429834919921e+01
3.782181913485968039e+01
6.886878808970260479e+01
5.538616585780717827e+01
5.423830998541021131e+01
5.051467152115697701e+01
2.922998520106475340e+01
1.958255535052032315e+01
1.693273069356005323e+01
5.638516805117018471e+00
-4.316667816327982798e+00
-1.691248623788353811e+01
-3.317343406213495172e+01
-3.670599648378086499e+01
-3.827881058930231006e+01
-5.233420470123888890e+01
-5.661654923335721890e+01
-3.855680921688065155e+01
-1.810800795914509109e+01
-6.276385801170471623e+00
6.053007432390668185e+00
2.891685935319746648e+01
5.401966267560779755e+01
5.905140980163282904e+01
5.318811561999443427e+01
5.981955391008817458e+01
4.413866587814218434e+01
-2.631271321275750807e+01
-8.849842493570450586e+01
-8.740351504928273130e+01
-6.933746853371593488e+01
-6.045405574808810911e+01
-1.755788350616543525e+01
3.957816165084925331e+01
4.282112469693780099e+01
1.501719327908831403e+01
1.554565348923750534e+01
2.286151786387675600e+01
5.791522753308978366e+00
-6.404204643233889271e+00
-9.888803315016891915e-01
-3.523693981849768342e+00
-1.288976293816376995e+01
-1.279967839294083198e+01
-8.457747883739640926e+00
-8.412414251303905743e+00
-1.728232099232857877e+01
-3.351977656653261306e+01
-3.653549075668343704e+01
-1.403044461312409297e+01
1.963326143832962600e+01
4.999160109016995079e+01
5.911035318730745303e+01
2.692022750771433337e+01
-2.368457442323689577e+01
-5.142412989866978990e+01
-5.137451940515594373e+01
-2.501231704028682046e+01
2.211979525858433249e+01
4.500608310428037129e+01
1.872923810141758239e+01
-2.488799633090345154e+01
-6.026601786830469365e+01
-6.924121447889146452e+01
-2.844449474789771415e+01
2.866998147136289532e+01
5.010678736424513602e+01
4.735648984216683033e+01
2.912959732778050181e+01
-1.531687689942176789e+01
-3.371632846265168126e+01
6.721347688298145329e+00
3.677405506097515087e+01
2.085693027124695220e+01
1.103868632960723239e+00
-2.549869078903574149e+01
-7.760953385828381101e+01
-1.064747588025916514e+02
-8.029171765761292079e+01
-2.910732629081817890e+01
2.896017004836204478e+01
8.732558561903140060e+01
1.151586673049452259e+02
9.424013011613021717e+01
4.203556776238494308e+01
-1.863828479736481825e+01
-7.143858061587378927e+01
-9.193621062030115354e+01
-6.347703513908529516e+01
-1.469417038871713288e+01
6.958673865459956254e+00
4.222515665994564849e+00
4.923873359903326197e+00
-3.722054904265716502e+00
-2.591959345429745909e+01
-1.837196471667857978e+01
1.962319275101729588e+01
2.669818371656273825e+01
-7.317542102050287767e+00
-1.886681628561875002e+01
1.903079775104486160e+01
5.301226424931181924e+01
4.631902095849456202e+01
3.647196336421193053e+01
3.159978235389692358e+01
-3.125369883655610082e+01
-1.284459584940405250e+02
-1.395278182220115468e+02
-7.093605871756614079e+01
-3.142623382153968237e+01
-4.275436440798559445e+00
6.674542703409193223e+01
1.050297503874292460e+02
5.871053541151621857e+01
1.244351354055472214e+01
1.300496944429620783e+01
1.439388518007347173e+01
3.880216421559050666e+00
2.684572682091334705e+00
4.591989835570698730e+00
-4.138564648395335333e+00
-2.940460033770534309e+01
-6.161640965111287471e+01
-6.545084770161928134e+01
-3.511743399805355637e+01
-1.884534326124543213e+01
-3.405515955523365790e+01
-4.375438096691718215e+01
-3.963231288340003999e+01
-3.702880105493459695e+01
-9.298702163888265204e+00
5.935038224824169362e+01
1.203177649287647597e+02
1.413809483994102436e+02
1.420877334191122827e+02
1.240733382835122569e+02
7.947779698533308590e+01
2.204206569986682496e+01
-7.154456404394993285e+01
-2.224880530363035405e+02
-3.459272037234783852e+02
-3.522896182802001022e+02
-2.591611007069376456e+02
-8.838787966580575528e+01
1.514131470161738662e+02
3.497280089187127601e+02
3.846360229174765664e+02
2.809012903406519399e+02
1.385280369035182275e+02
1.837573064890827368e+01
-6.113150515621734371e+01
-1.087344273110600454e+02
-1.294217969930085133e+02
-1.258203584044464947e+02
-1.348303928430470933e+02
-1.556750291620342068e+02
-1.180779254801731497e+02
-3.026969912886252700e+01
1.668319212606331092e+01
1.980760190435622903e+01
3.239131586160060294e+01
5.045201872017663192e+01
6.830393150196063345e+01
9.020815476153501322e+01
9.218961526557775699e+01
8.332289227136207899e+01
7.353024273933482391e+01
1.890143995064129001e+01
-4.880849761754437566e+01
-4.457102992009572517e+01
-2.894585473681794241e+01
-8.448462432912461395e+01
-1.230513000153548120e+02
-8.865214599860578915e+01
-6.665514748414378232e+01
-5.972748080668930015e+01
-1.280242172961732372e+00
5.455655831068799699e+01
4.430833290845378514e+01
2.528666166746717181e+01
3.858838450816677579e+01
4.897987678200929906e+01
4.941211556040349251e+01
5.390919264447502002e+01
3.971139297769050813e+01
1.416222369248915314e+00
-2.049576617054010441e+01
-1.385968875068802042e+01
-1.468193898527909980e+01
-3.205344030350784834e+01
-4.055617571315603698e+01
-5.087780550811555713e+01
-8.224775045818687147e+01
-9.437706198499323307e+01
-5.743789724579193035e+01
-1.254933107910305701e+01
1.585575096580505061e+01
4.815498017915170692e+01
7.425147728634249233e+01
7.739600456827984942e+01
7.587258553257998983e+01
6.259303943983952934e+01
1.955847529122925010e+01
-2.017383449989348421e+01
-3.733402422343779392e+01
-5.395720709164589834e+01
-5.587814608627675028e+01
-2.532460465068724531e+01
-8.263224914268658239e+00
-3.077118396011103130e+01
-4.647715436749940920e+01
-2.889612126737738507e+01
-7.548638062123476544e+00
-1.072422143075887568e+00
5.947283169725821494e+00
1.792801499155486411e+01
1.075861097520347442e+01
-1.269078556491138343e+01
-6.385137391928840778e+00
3.535682685038656814e+01
6.224495975963331063e+01
6.022821142565472741e+01
5.051790648254466731e+01
2.438417995309118069e+01
-2.173943331093492048e+01
-5.661761996868630575e+01
-6.920123859876773054e+01
-7.484955208618544020e+01
-8.129536497163866215e+01
-8.833960265210039609e+01
-7.668980517260078500e+01
-2.670097705269598976e+01
3.329445926452260096e+01
7.497008480196460312e+01
1.148964982704578262e+02
1.348011835405632439e+02
9.150527504002789669e+01
3.036634075448820980e+01
9.632244369568347508e+00
-1.226107488700223058e+01
-5.651018544821365452e+01
-7.146733005460583854e+01
-7.330145955735548569e+01
-1.087771462982670272e+02
-1.208697103934146213e+02
-6.102037390018509910e+01
6.624827682279402552e+00
3.691245759966960804e+01
5.022398890901337865e+01
4.287553574371051468e+01
1.352088887358519642e+01
-1.476604835000030036e+00
1.845962244227555260e+01
6.647591579081012014e+01
1.036989703695431331e+02
7.927141167558431789e+01
2.437150381982805669e+01
1.892013055673160693e+00
-1.879380221032431919e+01
-5.627435223297663924e+01
-5.687507280156773959e+01
-4.972523114433136016e+01
-9.196046416204141849e+01
-1.281991782621435334e+02
-1.216795792687629216e+02
-9.219313293141519239e+01
-2.064780533976859545e+01
4.392390682940389723e+01
3.267061008575181091e+01
3.501513661114481835e+01
8.731307263757992132e+01
8.607507847520494693e+01
7.940362442784784491e+01
1.445409596459790293e+02
1.655210220393284999e+02
1.147374008690561453e+02
7.871385511599854112e+01
1.502485397849335058e+01
-7.137547660944282768e+01
-1.120124107073296074e+02
-1.875506119541272483e+02
-2.735474910518623233e+02
-2.236984526947215386e+02
-1.581790050274403541e+02
-1.865228650049241992e+02
-1.396665479409158763e+02
-2.572566518446273065e+01
1.030020691181376691e+01
7.238524304949024213e+01
2.081949223753795479e+02
2.966248561464848876e+02
3.613292356136721537e+02
4.082449502547908651e+02
3.576627663142518827e+02
2.796170013927658715e+02
1.927767849271613443e+02
5.729891397516324147e+00
-2.315927857165869170e+02
-4.842636606638424155e+02
-7.206244793085946867e+02
-7.416916630515835323e+02
-5.741321183680785225e+02
-4.064606575742745918e+02
-1.236421834105695154e+02
2.275395915025673617e+02
3.232913610768008539e+02
2.959285333953541794e+02
3.911513200328524249e+02
4.549134421261908301e+02
4.923906206321468062e+02
5.765768682901081092e+02
5.193864868355186672e+02
4.276671073714104523e+02
4.198314426013678826e+02
1.670679275056095321e+02
-2.545947921432336614e+02
-5.213660870010494364e+02
-9.276677870701532811e+02
-1.527010762428549924e+03
-1.789450439213452228e+03
-1.579636630535893119e+03
-9.221680195686251409e+02
1.748555475932782599e+02
1.222431296359553698e+03
2.007053888275491772e+03
2.582194333339789864e+03
2.366052444833037043e+03
1.375233298518995980e+03
5.026288073622113188e+02
-3.679744903471826092e+02
-1.492833657702302844e+03
-2.119095186455324438e+03
-2.228602558304545710e+03
-2.077799691836485181e+03
-1.086897776095487416e+03
1.431252039732820265e+02
6.879174432473801062e+02
1.379970272379752259e+03
1.880614876769909642e+03
8.471933790276870013e+02
-7.803307297961356426e+01
3.962705159729418938e+02
2.685051375043133248e+02
-4.562932143266897356e+02
8.869068006053533182e-01
1.877848255233932946e+02
-8.943748669529686595e+02
-1.085394023358300728e+03
-2.363579337757152246e+02
4.947374225513716084e+01
2.822351377573049831e+02
7.910947760486601510e+02
6.348417746279561698e+02
5.200401047186513637e+01
-3.418425689302286514e+02
-4.678193981028703661e+02
-1.693490572406944068e+02
-5.151252892276903417e+00
-3.083159340082003723e+02
-2.674638491357006274e+02
-9.256158756234864882e+01
-2.558412571392299526e+02
1.337778500862191606e+02
6.475561572133789241e+02
2.633600160124548211e+02
1.793181698212731590e+02
4.560056192175773617e+02
-2.431630693809110255e+02
-2.942576631105729348e+02
1.081790039608519464e+03
9.055252443485469485e+02
-7.222922603683515490e+02
-7.846637923708341305e+02
-3.078873857129137832e+02
-1.221810732701024335e+03
-1.610548690999012933e+03
-1.044540966277264999e+02
1.340471042288183071e+03
8.455829600076248198e+02
-3.577919472722535374e+02
3.623901370513874554e+02
1.656921954681288071e+03
1.891037588808594592e+02
-1.322901140083559767e+03
5.025546058263979035e+02
1.145080473084948835e+03
-1.468616116037033635e+03
-1.455314982206250534e+03
1.206884921904317935e+03
7.834472099405790004e+02
-9.656166429893635268e+02
-2.237229828691343698e+02
3.303764847587834197e+02
-6.639887295092069053e+02
-7.452177970325232081e+02
1.024848780590666451e+02
7.186918459692898296e+02
8.784384067164244243e+02
1.722453003568682846e+02
-3.358335470168277084e+02
1.722343003489302191e+02
4.804803906747174835e-01
-5.213980377372458861e+02
3.462584188616829692e+02
6.991639559426135975e+02
-4.251842193051833192e+02
-4.512664656172130435e+02
1.568911527413123110e+02
-5.332746114014095156e+02
-6.461060010756792735e+02
4.591676056684270861e+02
3.857621834078598795e+02
-3.969376649914386235e+02
-7.074010352618387287e+01
4.138573268331390409e+02
2.331656527044025324e+02
1.321988860748589616e+02
2.987816060963652944e+02
4.015580525014192403e+02
2.769550110129197407e+01
-7.628845082439736416e+02
-7.756832286355105452e+02
3.312080736709194895e+01
1.670012561144388599e+02
-6.983848330350784295e+01
3.685313698891779950e+02
4.685845616039570132e+02
-2.494486188103757058e+02
-5.007271233431367818e+02
-1.466007819657879168e+02
6.661767797026674032e+01
2.126848394701281961e+02
2.510329069351196836e+02
4.016521368341306442e+01
-1.613049440547435509e+01
6.107544797789549307e+01
1.703942081466098557e+01
1.184699529579248889e+02
2.678862907544944392e+02
5.143284664063197908e+01
-3.022743330094688758e+02
-4.657680886266895754e+02
-4.394214909879162292e+02
-1.959452164568108685e+02
6.996571835820215313e+01
1.059254282108124983e+02
1.003040899101515890e+02
1.734470715334425392e+02
1.669129837423874960e+02
