-5.960311465182324173e+04
-9.827697419644494948e+04
-6.131177622583205812e+04
-6.158541460043164261e+04
-5.335743542153391900e+04
8.931654085675470924e+03
3.678091592282683268e+04
1.289180343965662541e+04
7.272828861413879167e+03
1.953851125533496452e+04
2.478309972988083246e+04
2.864820765686349841e+04
2.047211070537399064e+04
3.683624721302456692e+03
1.090787061274728785e+03
-1.175352568949743727e+03
-1.255071259417879446e+04
-1.108524086112153418e+04
-4.016460905986984926e+03
-1.045880718701400838e+04
-1.670280594367568483e+04
-1.382671489691195711e+04
-8.120446033849460036e+03
9.726145082842931515e+02
5.369146365259834056e+03
2.125955350054034625e+02
1.075779754280041516e+03
8.337818666177732666e+03
8.321016526602157683e+03
7.028975755040110926e+03
9.444501706128419755e+03
6.990623780119192816e+03
2.042526070429288893e+03
-3.713664119152548437e+02
-2.663224006670395738e+03
-1.763961969740543509e+03
2.755648780523130199e+02
-4.803337227980921853e+03
-9.787613081722178322e+03
-6.746217608704533632e+03
-3.559695001561069603e+03
-2.991770781708133200e+03
-8.931196204471337978e+02
3.236445006799052635e+02
8.227455509755374123e+02
2.831219101791286903e+03
3.070827472159766785e+03
3.085926252301083878e+03
5.623404706874516705e+03
4.859051462805226947e+03
5.796503298582617845e+02
-2.539999729665467498e+02
9.746048466250057345e+02
5.699237926310396460e+02
-2.571903763232365918e+02
-2.046112837989406216e+03
-3.803660724857554669e+03
-2.686958274255907781e+03
-1.758859506232547119e+03
-2.573332788793419695e+03
-1.375449096408656715e+03
3.029247104897144141e+02
-5.048239271149017213e+02
-6.920801524604503356e+02
8.716574656485299784e+02
2.008660990262663063e+03
2.674678141620378028e+03
2.134564405488501961e+03
3.838224823342728200e+02
4.255848963682248609e+02
1.504226847942496761e+03
7.033553392298056224e+02
-3.133327803203434314e+02
-3.220064724493480526e+02
-9.012241859480991479e+02
-1.445724106470116112e+03
-1.229004472247439708e+03
-1.040010817302281794e+03
-4.073150628746384996e+02
7.558543990936959744e+01
-8.588330454299863277e+02
-1.143801044468957571e+03
2.800883733524889294e+02
9.341104702950099181e+02
5.547965853639733496e+02
6.299240934337904037e+02
6.433438478652122967e+02
4.596648662831638035e+02
5.800517057576008710e+02
3.532791972747937734e+02
3.627391133750982988e+01
2.191635675275495316e+02
-7.200326464959590567e+01
-7.248818701139042560e+02
-5.051418291157789895e+02
-1.467761948735278565e+01
-1.306523608427173997e+02
-3.993423172659662441e+02
-5.456916441859816587e+02
-3.993470381050371998e+02
1.286411956500721203e+02
2.946753226367204093e+02
6.421218571589938051e+01
2.079292298517469249e+02
3.154088537751969170e+02
-4.522726726562412125e+01
-9.973611521810018132e+01
2.345895539715677103e+02
2.691602305781677273e+02
9.367450047434999760e+01
-2.863299050375917076e+01
-1.614537733105462394e+02
-1.550100380507808211e+02
-4.604215841959596389e+01
-8.609446954311137290e+01
-1.095218869231918717e+02
2.695610818551825361e+01
9.229746097528828841e+01
1.915119934428153314e+01
-6.953164315988942690e+01
-1.423471521178920227e+02
-1.562018943679387917e+02
-6.866452482093741594e+01
7.223696974457347153e+01
1.864236133321868465e+02
1.887878121770093003e+02
5.485520433087827996e+01
-1.314312494664300175e+02
-2.129410019335652180e+02
-4.828833317959149696e+01
1.714628356865112835e+02
1.606715532860934843e+02
5.936016350433188649e+01
-2.094532695301930758e+01
-1.297829674332879222e+02
-1.200094762918567852e+02
-1.399383681298674276e+01
1.195902190489576000e+01
7.040304031303409715e+01
9.948847311935078608e+01
-9.397000178380523039e+01
-1.730020900087203586e+02
5.378062054128765368e+00
-1.203521788055541819e+01
-1.907471344905616490e+02
-1.333018209511841121e+02
3.311444269837951282e+01
7.590682316100091498e+01
1.000939882112151480e+01
-4.802051039894709561e+01
1.204295234424506873e+02
3.355650228451129919e+02
2.227287781538002207e+02
1.118991090345336659e+02
2.264425451338450728e+02
9.620089367470652064e+01
-2.334492490225521806e+02
-3.696207765369528602e+02
-3.663128598762997967e+02
-1.888426256744627949e+02
-9.669036267798475137e+01
-5.223963143626233432e+02
-6.374639946859088013e+02
2.895724408330944399e+01
2.446302298595721538e+02
-4.133256661899770990e+01
2.373634415837641995e+02
5.120118533685553075e+02
3.351612206078847862e+02
4.290305486606217187e+02
5.404959109428361899e+02
5.033065200096768876e+02
7.078024234262830987e+02
2.263203029179009889e+02
-8.186639132827179992e+02
-6.283490838815085908e+02
3.563267551636654673e+01
-4.070491153470621839e+02
-8.832760774351540931e+02
-8.981549729219588016e+02
-1.060694674389547799e+03
-7.434841752337292746e+02
-2.466370407916511738e+02
-2.315024824489487969e+02
3.891628493108617590e+02
1.044516975526224542e+03
3.954104843500474544e+02
3.222885871896972390e+02
1.632548238431974141e+03
2.165396432403335893e+03
1.645414383956185929e+03
7.574369337217386828e+02
-3.430958901925638997e+02
-3.049210697450865268e+02
1.001176314342163494e+02
-1.251255991101082373e+03
-2.323639075301164667e+03
-1.851555213642785930e+03
-2.376648058527841840e+03
-3.020711250695336275e+03
-1.541510201069634149e+03
2.615766937208377385e+02
1.287324361684258065e+03
1.509817375867917690e+03
3.637402548576329195e+02
7.447156184469467917e+02
3.484962797377909737e+03
3.687482849072758654e+03
1.727591652495116705e+03
1.670401763312239837e+03
1.432341282089161496e+03
-2.972267496073849458e+01
-3.354831137493372921e+02
-9.402278817621830740e+02
-1.841238206019608015e+03
-1.712177859839819803e+03
-4.006931023210219337e+03
-6.528546039340786592e+03
-3.200587917564749660e+03
2.617244300626043696e+02
-1.397087489549883685e+03
-2.084565651558038553e+03
-2.952118741994560196e+02
1.489721987643781858e+03
4.748229462890573814e+03
6.149351765963657272e+03
4.590924639225834653e+03
6.065580898324226837e+03
6.180968538710051689e+03
6.694486516872070752e+02
1.268818749871755891e+01
3.842231832388119528e+03
7.078525472423318661e+02
-5.669585086192815652e+03
-9.600143533949636549e+03
-1.172097153691231506e+04
-7.306113892703999227e+03
-2.876875102041325590e+03
-8.234210319317964604e+03
-8.855048372869941886e+03
2.814309904186831091e+01
1.184025021423526596e+03
1.964072235983754581e+03
1.389416433165710805e+04
2.019578277497437739e+04
1.755050096032211877e+04
1.388742615506935908e+04
5.206917779643287759e+03
9.136918526356959774e+03
2.592406015880362975e+04
5.433854176890574308e+03
-3.872956662564567523e+04
-4.246644708358941716e+04
-4.112614913528243051e+04
-6.922275155337741307e+04
-4.302372412875170994e+04
4.143092984141336638e+04
6.767197632303266437e+04
4.143926999834253365e+04
4.472069123443141143e+04
4.032010714819999703e+04
-5.581345147395811182e+03
-2.638793228010192252e+04
-9.042113595896888000e+03
-4.929437776000116173e+03
-1.365621199715892544e+04
-1.741795833443020820e+04
-2.059684871915611438e+04
-1.503829323630020190e+04
-3.190123756238596798e+03
-1.820831672615775688e+03
-1.924077133891122742e+02
9.057342626952578939e+03
8.846474567807325002e+03
3.331386042237344554e+03
7.615986945687703155e+03
1.298411222690971772e+04
1.133445346022500416e+04
5.967874157018671212e+03
-1.634821996767960172e+03
-4.616839392282747212e+03
-1.028966075685889109e+03
-2.102974209307924866e+03
-6.644679129516510329e+03
-5.485227209098758976e+03
-4.299153326288810604e+03
-6.357805198954034495e+03
-5.011968142588263618e+03
-1.713172539444313315e+03
3.642611803599475024e+02
2.411514506748859731e+03
1.706343908726511017e+03
4.647976074652146394e+02
4.421756233152110326e+03
7.238474650528457460e+03
3.877238803762717907e+03
1.306764245873347136e+03
1.134052760685382509e+03
-1.792138596328755966e+02
-5.178528257913536663e+02
-5.351242475533256737e+01
-1.229105468441007361e+03
-2.040215628983799206e+03
-2.673816949050487892e+03
-4.249142290728657827e+03
-3.290181340279891174e+03
-9.906534782491327462e+01
1.195325431053110606e+03
8.742454521906385025e+02
2.268695244185517623e+01
-7.048921865335142911e+02
7.412625996497688448e+02
1.893722143245537836e+03
2.497427084121865164e+02
1.754762394643753112e+02
2.139492631975082986e+03
1.404358842510008344e+03
1.945904134463414721e+02
1.581164755618381605e+03
1.750707965602858394e+03
-3.461062374336751759e+02
-1.825239800540496617e+03
-2.535998504209679595e+03
-2.152417344861587480e+03
-5.007239236051163402e+02
-2.008208802278135465e+02
-9.899375653263828099e+02
-4.775976352748144791e+02
3.990193045495077229e+01
-2.309665657550627031e+02
4.050007522911972160e+02
1.304751446578652576e+03
1.289876568414453686e+03
9.674457312333979644e+02
3.154794037475053301e+02
-1.517707637310152222e+02
5.112886727044028135e+02
7.902271076845430571e+02
-1.283984424584522230e+02
-5.588905312990965513e+02
-4.468930409351821140e+02
-6.395351255047424957e+02
-5.278849742582513045e+02
-3.428586190718876878e+02
-5.574538114929724770e+02
-3.535066376839515669e+02
-1.012426161006564485e+02
-4.348286699583302948e+02
-1.051109065521507659e+02
8.306303761818794555e+02
7.471906005853060151e+02
1.621525142499938283e+02
2.207212817485001040e+02
3.273197156553479203e+02
1.404838114977559940e+02
2.639462666100827448e+01
-9.015723129130520874e+01
-1.439179305116281284e+02
-8.469182115807907962e+01
-2.170458276937245898e+02
-3.169149809548183612e+02
-1.623092221645698601e+02
-1.701525313297055959e+02
-2.774296544559747417e+02
-7.993053346730357589e+01
1.838704907074065602e+02
2.835720200691912396e+02
3.059355618239344494e+02
1.319965134052669384e+02
-1.723495094063840156e+02
-2.568592806892374369e+02
-9.940248326067360551e+01
1.010462959264417719e+02
1.976816691596999362e+02
1.057828917654838534e+02
-2.960611173183124478e+01
-8.846673419898318969e+01
-1.741591636573815549e+02
-1.703350675982562166e+02
5.716056823623833338e+01
1.768237913479919143e+02
-1.598385533840351869e+00
-1.736866508115292902e+02
-1.833031305452686581e+02
-1.391086349175974988e+02
-6.068240561466054572e+01
5.389050233144291013e+01
1.858406067682761602e+02
2.879135663459250623e+02
3.011610137723449725e+02
2.350866865595635318e+02
1.267913014723623064e+02
-5.034553300528781961e+01
-2.854648601171176097e+02
-5.194239204984127127e+02
-6.953627520026244611e+02
-6.122337641659918290e+02
-1.656660618832656837e+02
2.987591043667389386e+02
5.488896875908321817e+02
7.594958678605413525e+02
7.558199876915604136e+02
2.673486359692160477e+02
-1.973849287828126364e+02
-2.490394753927795932e+02
-3.311999987263870935e+02
-5.085760956137041262e+02
-3.654458571418833230e+02
-1.571999615736782516e+02
-1.877804258741704473e+02
-4.605619884082696558e+01
3.505884213941295116e+02
5.158134941125933892e+02
3.725766576924859237e+02
1.462543025469655902e+02
-1.189756729962530528e+02
-3.486196643989995891e+02
-4.113537743573277794e+02
-2.357041527040492213e+02
1.126919041660987801e+02
2.756121017749686644e+02
1.086407241438250111e+02
2.183680641357604202e+01
1.193709225481525067e+02
6.539545891000737754e+01
-3.764249716625897690e+01
5.024944439621509495e+00
-5.669148793271543951e+01
-2.358564663929095104e+02
-2.588219901055147716e+02
-1.157021715779778503e+02
1.392616327403449077e+02
3.204777881104133712e+02
1.030732089751870575e+02
-2.028774212428873795e+02
-1.368241381074724359e+02
-4.592332866095939181e+01
-6.760264491281516541e+01
2.370353812559932010e+02
5.099362606583954403e+02
1.572033219267036941e+02
-3.112822027688471280e+02
-3.698171662179157124e+02
-2.690951859567340989e+02
-1.191849817555976756e+02
1.156987723443509708e+02
2.419720933818869071e+02
2.123318186808811845e+02
2.719097075171358213e+01
-2.590361732681433296e+02
-2.417026755739534281e+02
6.674382796883669755e+01
1.095827787474593009e+02
-6.200919405747576718e+00
1.111385607372524333e+02
1.282476697941266366e+02
-8.632229370034015403e+01
-7.130881783270640994e+01
1.066149399611938264e+02
5.602491098732139108e+01
-9.150498966070958318e+01
-1.167426103852342010e+02
-7.940643994143975704e+01
-3.577350206634757512e+01
6.842740064778132236e+00
5.921289895276608917e+01
7.096097298806451192e+01
-6.805832252892832912e+01
-1.934652110570032733e+02
-1.097658053610511786e+02
-7.275426761582855839e+00
7.457791583332996765e+01
2.819846468920945881e+02
3.219598756983649537e+02
8.190669954504819827e+01
-2.337916369438451625e+01
-5.983602513040698767e+01
-2.769364574640069350e+02
-2.913673298289334639e+02
-5.995430044973075212e+01
-4.728708747125224932e+01
-7.389142315303483599e+01
9.166724139995569942e+01
7.815527580520196693e+01
-4.824647049413910338e+01
4.075896156866525644e+01
7.095668403243874423e+01
-4.334307485357703271e+00
1.472193270094347213e+02
2.463117386855305710e+02
3.245165731069288739e+01
-8.588222978846272326e+01
-2.790868439763827169e+01
-1.061658259482560425e+02
-1.891868961513846159e+02
-8.162811003285511902e+01
2.503163698687529859e+01
-4.157123221621849751e+01
-2.138454174397929251e+02
-2.407115060026411868e+02
6.180257168943080970e+00
2.206335857740528752e+02
2.410608303148289053e+02
3.369049583063251134e+02
3.674386825669284349e+02
-1.300323459595402653e+01
-3.921042718318147990e+02
-3.415231232944014437e+02
-1.889919635754533829e+02
-1.112810048298218959e+02
8.290365354886425564e+01
2.292731722370526484e+02
1.581115869867639674e+02
6.925863258797332378e+01
4.753131555900099059e+00
-1.133183998865731184e+02
-1.430518775297535399e+02
-6.442264524476711074e+01
-4.081586882339905031e+01
-4.509300045678515545e+01
1.885784627840551053e+01
8.809762846294204053e+01
6.799008280506862434e+01
-3.217999541051302259e+01
-6.656599872460408562e+01
4.513545165585740904e+01
1.032170081663128087e+02
1.767670815633642256e+00
-3.131321505792281101e+01
2.741589555455836802e+01
-5.175663393999935380e+01
-1.450578310750818218e+02
-1.562637491303794768e+01
1.417723039848441431e+02
1.105081389486893642e+02
9.561661664324912380e+00
-5.030356043608033190e+01
-7.518289697822325479e+01
-6.382602107320133200e+01
-7.276870287994142927e+01
-1.183445888948205464e+02
-1.167237643393324191e+02
-1.030977715833592896e+02
-1.296977874711499510e+02
-4.888567490975170671e+01
1.865500711028182650e+02
3.545225213998529625e+02
3.361366823406950743e+02
2.553596160643477049e+02
2.025785675905303265e+02
1.101428009474839769e+02
-7.988939531054894871e+01
-2.751352261547366425e+02
-4.003099843332155956e+02
-5.318885267643362340e+02
-6.046131581731006008e+02
-3.961322592261581121e+02
-6.856537920179304635e+00
2.922642580912990979e+02
5.088657889739592406e+02
6.028377052465309589e+02
4.339019543192554806e+02
2.415321367316424244e+02
2.018279057078100891e+02
4.374398486486608562e+01
-2.098489415896678736e+02
-2.931666328682204039e+02
-3.798479362276779057e+02
-5.099012133999385696e+02
-3.506840444096112606e+02
-3.857363431433106626e+01
1.294272916405195701e+02
2.529094696834921763e+02
2.276955083258264381e+02
-1.314472925578918172e+01
-3.536183534261173378e+01
9.744087043425228956e+01
-2.245736373812432873e+01
9.572541248574841788e-01
2.961822724350014937e+02
1.467230260138744597e+02
-2.287994692615481540e+02
-7.156811592586517179e+01
1.303783195862934861e+02
-9.002002823128955811e+01
-1.311877807185277334e+02
6.734848891509007274e+01
-1.031180866583416389e+01
-1.799597532765631058e+02
-1.735997572677798928e+02
-1.321520357795455993e+02
-3.290349758070532715e+01
6.103292533302838763e+01
1.337102969621896165e+01
9.429794911799442048e+01
2.879094151247937816e+02
1.738428669966964435e+02
-4.431129333504054557e+01
3.615264829879287767e+00
3.201414322199835283e+01
-1.117405137348053472e+02
-1.551609585678149301e+02
-6.497378069847168547e+01
3.163482668509031726e+01
3.820668624587075612e+01
-9.180808027986979880e+01
-1.040027515168786323e+02
5.807106257478184830e+01
-9.321792316466552819e+00
-1.732859374918855337e+02
1.433980610231441233e+01
1.918959178264568095e+02
4.318394099297869815e+01
1.366787475663753071e+01
1.258677621511705809e+02
9.534268453480851946e+00
-1.100610425890545798e+02
-4.807565089079905363e+01
-3.708289118775926596e+01
-2.285733631910711949e+01
4.534060941960044033e+01
-2.187335110239364866e+01
-6.226006010204591234e+01
3.284859426185725084e+01
-1.102881149825930507e+01
-7.306725336447094321e+01
4.836429867532145011e+01
8.528374886539527466e+00
-1.613494209605633500e+02
-2.581593304398024813e+01
1.405615037063805062e+02
2.798429561136833144e+01
4.952784405978784577e+01
2.114303475633605558e+02
4.818068371852373843e+01
-2.025989764938368580e+02
-1.378484655772197698e+02
-3.058787933525825053e+01
-7.810415671806430282e+01
-7.259391833561940643e+01
7.246396134824982127e+00
4.761713445460229366e+01
4.361141536028383570e+01
-1.249658973134563311e+00
2.478631054075496110e+00
9.381006068072788651e+01
6.459697648042239848e+01
-7.358512001425583549e+01
-2.093058890884295309e+01
1.166568532426214517e+02
3.029991699628402557e+01
-1.017448861382628991e+02
-7.424844630726730088e+01
-8.961247481284206629e+01
-1.574255658953891270e+02
-4.778804285210973291e+01
1.230333105238142792e+02
1.483574439799601521e+02
1.133311384709911920e+02
4.458769097553491889e+01
-1.103788900469870811e+02
-1.849589676603764019e+02
-9.611124367312260119e+01
-1.231423349864473593e+01
2.909747188369591342e+01
8.859746897468637883e+01
9.240480210587089971e+01
4.674156998979458422e+01
4.344917493774293860e+01
3.356690930894901470e+01
-1.491978012062961767e+00
-2.505092243697490062e+00
-5.100090004796919629e+01
-1.574838916997231024e+02
-1.438887769857563796e+02
-3.772293811449274159e+01
-6.046278463995980346e+00
1.729068792950338462e+01
8.714296083848461194e+01
7.660969017746739951e+01
3.574425723733101634e+00
-2.604508695187269396e+01
-4.931976231829754909e+01
-5.176618531995442396e+01
2.475256890998269554e+01
6.429154455256227152e+01
1.724190190085280960e+01
2.891428422739540238e+01
8.608561903807695614e+01
4.083158644494004363e+01
-4.476776763683035654e+01
-3.558633936482961957e+01
6.889868809202870814e+00
-3.100454051431573532e+01
-1.219540583942089000e+02
-1.526916884259496499e+02
-7.973896446905703783e+01
-6.781662082762922594e+00
-2.098423200963977564e+01
-1.293098888959904968e+01
9.158936730964846618e+01
1.013476498863617508e+02
-7.346932801447731265e+01
-1.463893448398369799e+02
3.980767972785025677e+01
2.030540862969718603e+02
2.007249861168374423e+02
2.674050920352858043e+02
3.809823446590559684e+02
1.985884050459660557e+02
-2.331769921314348153e+02
-5.270710778545503672e+02
-6.071009816439311635e+02
-6.026040830632107372e+02
-4.392830688384375435e+02
-5.984176813715230736e+01
3.486183643214826589e+02
5.845546118103613935e+02
5.900854735574239385e+02
4.179131548919646093e+02
1.969120020590886497e+02
1.792844077746547171e+01
-1.225303528268633215e+02
-2.068804385448450205e+02
-1.945400418680153507e+02
-1.533718018783759476e+02
-1.883997092047279409e+02
-2.404448568547582283e+02
-1.699745335474981687e+02
-2.816663431586317046e+01
3.433360703542603432e+01
6.500288831622525265e+01
1.353276152165895780e+02
1.045312967100319241e+02
-1.459529299018693749e+01
2.762234442167850901e+01
1.469310108741878764e+02
7.072643642175374623e+01
-2.387494490642934863e+01
5.971311134470146698e+01
3.386085491765980748e+01
-1.559986330030664874e+02
-9.772033387383399372e+01
1.621331641554539544e+02
1.415588372472002163e+02
-1.082749281439171085e+02
-1.734272694060124138e+02
-1.119588082198065138e+02
-2.000888914204320201e+02
-2.689249877811521401e+02
-4.416201778506749065e+01
2.375549618595694596e+02
2.155475306169037992e+02
5.586448524357822976e+01
7.488745658939956229e+01
1.336332562052981245e+02
2.270476648706100775e+01
-7.767610806808470159e+01
-6.047414771454592497e+00
7.653522351500585330e+01
3.172022977621241679e+01
-6.206329538455753436e+01
-9.235663387535153390e+01
-7.008141519511413264e+01
-1.047339378901329212e+02
-1.878222701816617644e+02
-1.442777672336860633e+02
2.689892261261729089e+01
1.023112431936505970e+02
5.204256815420975357e+01
4.731557745519988600e+01
8.754775874539078018e+01
6.942955445971531958e+01
5.091731925653789403e+01
1.044874795115259047e+02
1.214634502593626877e+02
7.612984800569884136e+00
-1.244947170952966928e+02
-1.650589952974636105e+02
-1.637436276021734045e+02
-1.154457326800102805e+02
1.965934474303850266e+01
7.764933698720423649e+01
-1.756464667582025285e+01
-4.876985998940436673e+01
-4.108065387293431847e+00
-5.398872041874510330e+01
-2.619817811154736731e+01
1.659120756517273776e+02
1.853517919710344017e+02
4.349202227299256407e+01
6.121506300133649603e+01
5.904264318789564925e+01
-1.393854154931564437e+02
-1.915635668854365576e+02
-6.798543501845068704e+01
-9.463276269801798435e+01
-1.219008609976230275e+02
6.570752695422575584e+01
1.877791736104442748e+02
8.485177553422718688e+01
-3.533774722034100080e+01
-7.363061788093943960e+01
-8.382692057346052650e+01
-9.174816576157590475e+01
-5.232968038857154625e+01
1.098030730341183698e+02
2.441089663713829623e+02
1.182618802434913903e+02
-7.017496062853041394e+01
-5.711460113600858790e+01
-4.839522072862722268e+01
-1.545288661046574532e+02
-1.131769941571901228e+02
5.432096760274351510e+01
7.814433501370790225e+01
-4.772691781938638300e-01
-1.631874834213011383e+01
-1.545547482666705719e+00
-2.457404147962978058e+01
-5.943075786958716833e+01
-4.406814180132843717e+01
9.034959773322226440e+00
2.252910548287040271e+01
3.334931805487238421e+01
7.591370346579499540e+01
3.063133830823209536e+01
-3.542741622634126486e+01
4.768678393133749438e+01
6.963542875421694589e+01
-7.921556859939168760e+01
-5.436983954668197327e+01
8.803145401554516525e+01
-4.709095438357589103e+01
-2.055387336473347375e+02
-5.530102532814230187e+01
4.040135972709280310e+01
-6.938261041623886172e+01
-2.547358881526810848e+01
1.253157891237725323e+02
9.414007800875285170e+01
-1.837492642527978859e+01
-6.330122111051080225e+01
-6.177758770311596948e+01
-9.035570816647039649e+00
3.370919575803992529e+01
3.092755030699750307e+01
8.844050676514655152e+01
1.329150440538173825e+02
2.684754311629724555e+01
-5.902719187371559428e+01
-1.419168969021256999e+01
-1.135479001173698066e+01
-6.828851869999070345e+01
-8.282587522426719318e+01
-1.196887779222081747e+02
-1.658608837556846538e+02
-1.136030455218408690e+02
-5.458581657938559317e+01
-5.067840058726802965e+01
3.164761345246532187e+01
1.459716936425914753e+02
1.243357894364312983e+02
9.933290809740159943e+01
2.372293101038773386e+02
3.309410204227308441e+02
1.993041700737911128e+02
3.885921237394429539e+01
-3.333613806082001929e+01
-2.079619865523405053e+02
-4.769948269457751167e+02
-5.571484670148810210e+02
-4.217086582823334311e+02
-2.622814515031053020e+02
-5.762261890984718349e+01
2.599468359990212321e+02
5.237602630364896186e+02
5.761504159553633144e+02
4.467246910758083800e+02
2.150146281816284102e+02
-3.485439226439301308e+01
-2.124231661069034658e+02
-2.814506171621446242e+02
-2.549258276443160014e+02
-1.801596487006586074e+02
-1.179197842836155701e+02
-8.552173507200892288e+01
-7.238972395740925947e+01
-4.639175745553480112e+01
3.951116344409714998e+01
1.139641542136809562e+02
6.919337675766517748e+01
1.904985646951788070e+01
8.152399872156175320e+01
1.133799163961056564e+02
6.060008190266260897e+01
7.111816365124762740e+01
7.853614335365388399e+01
-7.190213946229300745e+01
-2.208733877106073180e+02
-1.850132773269445465e+02
-7.299895225894390194e+01
-3.441200006631690123e+00
6.334555364080613060e+01
1.287713090122952053e+02
1.008692158364563056e+02
-2.203471086731006778e+01
-7.228686106336779460e+01
1.783183302493335631e+01
4.627523055985967915e+01
-6.006035726477747971e+01
-8.347535289180311224e+01
-2.301742840896925912e+01
-7.597664354882191162e+01
-1.051578559507645423e+02
5.881272973232604784e+01
1.640393830812296017e+02
5.550869519056099222e+01
-3.385605846199663205e+01
-8.410788403088748311e+00
-2.766629922134582031e+00
-2.306853805682346703e+01
7.233586349569074869e+00
6.726095136616685011e+01
6.905084920492222977e+01
-3.584867291356880514e+01
-1.334696867457012672e+02
-8.988159835611597259e+01
-2.176518396206763128e+01
-5.562400226514336055e+01
-5.637640420241160655e+01
2.318057424884497308e+01
2.688800456990848176e+01
-1.116903316886300068e+00
8.177904177907065275e+01
1.517539414276394041e+02
8.605984975559417194e+01
4.764749119200880401e+00
-4.718894732198241826e+01
-1.443133362247270099e+02
-1.851791837012783333e+02
-6.852581314228160636e+01
4.347264523498144939e+01
4.633810102441460543e+01
7.039615191228888591e+01
1.057376315182986275e+02
1.835505638037034615e+01
-6.834416185851827663e+01
-2.404170065375917886e+01
-1.063770386213681718e+01
-6.449528447720180679e+01
-2.833360303456842644e+01
1.047676161136030260e+01
-2.884010035649401260e+01
3.418444763592200530e+01
1.236999427635144144e+02
1.126235335773794333e+01
-9.199290460607321052e+01
-1.959486740447012565e+01
-4.369798456181972313e+01
-1.554233788577085988e+02
-6.205645085357416235e+01
9.257007187828378392e+01
7.109804859080446704e+01
3.267089694525148502e+01
8.299968474964444454e+01
1.072793233053728841e+02
6.993290657322752679e+01
-1.759391631349959795e+01
-1.068721218622328308e+02
-1.103394604795903859e+02
-1.113501384178313316e+02
-1.631410926709903038e+02
-8.968019576877250643e+01
8.963557392855035744e+01
1.436366108031805595e+02
9.365058107391371323e+01
5.578833235835136151e+01
1.087758772972814647e+00
-4.633212336218156224e+01
-6.822510400671595221e+01
-9.239992359932814736e+01
-1.874390142271715831e+01
1.105201929056686225e+02
7.423181637551591905e+01
-2.401459467319581975e+01
2.731793352396127972e-02
-1.658498017254169810e+01
-9.275046086281898283e+01
-3.380981403478260461e+01
4.695354348276693202e+01
3.215388037541648458e+01
4.500650845848466020e+01
1.510427432773087375e+01
-1.077792236687470222e+02
-1.025314205476482243e+02
-2.405804178430007667e+01
-6.877070665712402331e+01
-5.637588940966487172e+01
7.495263343736255024e+01
9.689126605103142253e+01
6.576059889737952346e+01
8.588894598629636334e+01
2.317938966859381367e+01
-5.406571763446788026e+01
-4.380655939707304469e+01
-8.773964070210503507e+01
-8.462805774961009320e+01
1.085424766271121371e+02
1.761348669109107163e+02
2.426669355884423851e+01
-1.503889765914081345e+01
-1.086297727549123415e+01
-1.617673153497217697e+02
-2.056901431628625687e+02
-7.586358889642374947e+01
-6.427999408297526429e+01
-1.163622098373000426e+02
-4.978957909328328668e+01
2.619868446686572128e+01
9.238270897660196113e+01
2.242015832052733799e+02
2.942041950179835794e+02
2.423361229728674857e+02
1.558026910705483772e+02
3.108331109911508605e+01
-8.703091958363523872e+01
-1.230562971549380080e+02
-1.964635442828973453e+02
-3.322919033654328587e+02
-3.504914097055867046e+02
-2.905919842186533515e+02
-2.583573676102092804e+02
-6.351386156991348741e+01
3.052412835196679453e+02
4.787234097608309753e+02
3.910814020873501704e+02
3.160362051326849837e+02
2.271516362830167850e+02
-1.566218988364923703e+01
-2.042100408206806321e+02
-1.896440948966756821e+02
-1.726901521741711463e+02
-2.290402940732745947e+02
-2.038054968392882245e+02
-1.050292870806474923e+02
-4.045794903599832537e+01
1.571209401929164073e+01
7.765594106542442887e+01
9.779073673986437143e+01
9.340547694127923251e+01
7.729249301325086208e+01
4.228770262144612957e+01
3.751517402801984957e+01
4.270632458376937279e+01
-1.111859617779500020e+01
-4.912920649964451769e+01
-2.463385683060916165e+01
-4.763595286477439572e+01
-8.551204757592854833e+01
-1.079324982027991098e+01
5.368486677560170506e+01
-1.206806611731019352e+01
-3.748338429747897749e+01
4.020320442671680183e+01
2.696484147347234739e+01
-7.549412644079812651e+01
-6.622838563295015035e+01
2.245965200992901956e+01
1.373474144388559459e+01
-4.088754563522034147e+01
-1.164507341511423100e+00
4.876522273637457516e+01
-9.011908752327549621e+00
-5.532880146860695447e+01
1.209320780139277574e+01
6.107715647356063471e+01
3.265888047135611316e+01
3.750348710047624934e+01
3.617605690376429806e+01
-5.278251997501284620e+01
-9.175735045239068199e+01
-3.979617841940704182e+01
-4.590034586899888325e+01
-3.407343271516508310e+01
9.420281733489267140e+01
9.849539010539992034e+01
-6.134893550363790382e+01
-6.913358068378519761e+01
8.460769801253187339e+00
-8.319852731843488414e+01
-1.065837921036060436e+02
6.839617856001309804e+01
9.345853353205299641e+01
-1.156113996113997899e+01
4.408909228729219620e+01
6.563302988312446473e+01
-6.385535159087442025e+01
-5.253690351537589720e+01
1.483642685292348062e+01
-6.026754356827207459e+01
-1.107391016459966693e+01
1.316428885480322890e+02
3.665274455493946704e+01
-4.581431322967812747e+01
4.831102730498430020e+01
-7.724895408148796605e+01
-2.607458275295561521e+02
-6.694554809905571346e+01
1.025985595930571890e+02
-1.350065702374751808e+01
3.695476380975138397e+01
1.625139703147559658e+02
-1.847929514056003697e+01
-1.368260832999646084e+02
3.300666277999947340e+01
1.026327603148035337e+02
5.859372981740145292e+01
8.380452425484344303e+01
-1.987689924129036001e+00
-1.482911900280881241e+02
-1.249200720314178454e+02
-8.700090277169286423e+01
-8.780497332303151836e+01
5.563015303384385390e+01
1.435768367798238785e+02
-1.895666566058337921e+01
-1.102217487218219958e+02
2.549827812955426509e+01
8.591872539122559260e+01
6.804324128925736126e+00
3.326514759450395786e+01
1.181936718151549144e+02
1.110509589251950757e+01
-1.693287546019837180e+02
-1.254782194325877214e+02
1.951278732456129816e+01
5.502939400821960092e+00
-3.148104527424840171e+01
3.969758737044240604e+01
4.812050433704354901e+01
-2.235696308188273917e+01
-4.066430405502850221e+01
-3.896427959809878416e+01
-9.886311070310181748e+00
6.010452035796743786e+01
2.522087487314327348e+01
-4.944388782697328821e+01
2.259599867957626884e+01
8.215749951452895061e+01
1.198848863973270440e+01
2.642457153670402015e+00
5.363348592828023698e+01
1.262403879294113551e+01
-1.016275201676978526e+02
-2.258341597619295271e+02
-2.230852663666086926e+02
-3.295365736209201657e+01
5.656656968564127652e+01
1.529186206583054641e+01
1.742021800162882244e+02
2.933289684123469669e+02
3.409132298177368625e+01
-1.327207409793610680e+02
3.089174741837541660e+01
6.097327366554020500e+01
-4.368479259350329613e+01
1.751078192413528356e+00
2.325362415348790890e+01
-2.608277694425452609e+01
-2.749891604855747573e+01
-1.340162788678913159e+02
-2.302314632154726439e+02
-1.046989012747073104e+02
-9.134835982538641019e+01
-2.316477359511744964e+02
-5.284017009031411760e+01
2.665136459223566590e+02
2.635849227980045271e+02
1.705639980720081041e+02
2.247425410051883432e+02
2.268997571137404066e+02
1.337740980517114053e+02
5.373904866239166722e+01
2.284433586042496955e+01
9.799988231458131693e+00
-2.043591718781721056e+02
-6.121986599232155868e+02
-7.518989462643886554e+02
-5.310567639712278378e+02
-2.526603630777900094e+02
1.550886805466186331e+02
6.850078067771343058e+02
8.932128345950860648e+02
6.934081467813584823e+02
3.160841636915779986e+02
-1.666046339155472253e+02
-4.674993527481512388e+02
-3.601538009952278117e+02
-2.003120273053802407e+02
-1.350635189217288143e+02
5.957463328689644300e+01
1.142458501005141756e+02
-1.687862352343453836e+02
-2.787211988544959240e+02
-7.596411794085179281e+01
1.148003314748321557e+01
2.494945647525074506e+01
1.454443370153215938e+02
1.361948611560970051e+02
2.662464421266467696e+01
7.704767559540422894e+01
1.245582754571812529e+02
5.735731005494608326e+01
7.376177549232500041e+01
6.737440088335033295e+01
-9.479987957735248472e+01
-1.305859487697466079e+02
-2.040843000735650747e+01
-6.372104885359705406e+01
-1.408559082883425901e+02
-9.460964320875319800e+01
-1.461485052773200835e+02
-1.876530535504986119e+02
5.683152127154951927e+01
2.384118439375016862e+02
1.121121100820076322e+02
8.768064696727864771e+01
1.742614482915724068e+02
-2.183978785193214378e+01
-2.024686553790709524e+02
3.791079470972992027e+00
1.449122799365155458e+02
-4.489965050922533862e+01
-1.194183265048646234e+02
2.739841784552614712e+01
3.664428665187381995e+01
-8.341760911361207320e+01
-8.915953351024236895e+01
-2.502998607638324557e+01
-4.379619682222491406e+01
-1.034526290992887283e+02
-4.379914570883109803e+01
1.445253331430492949e+02
2.282247630276726795e+02
9.152579000325233949e+01
-4.548123978337440576e+01
-5.972594199174390184e+01
-1.016719757096627603e+02
-1.413629266024707931e+02
-5.017158350260856103e+00
1.404917399572992736e+02
5.403707286064047111e+01
-8.039215641987085803e+01
-5.556979028709618973e+01
-3.514253644516228547e+01
-7.762271385026222958e+01
9.418730364910615549e+00
1.364602497423310297e+02
7.422441494286222508e+01
-3.255467775132202490e+01
-1.082506916033030109e+01
3.512364498471900021e+00
-3.620678043146980940e+01
-3.535110696396236563e+01
-2.964560117677571327e+01
-2.669108035157541536e+01
-1.519417490981071595e+01
-8.174440220217144315e+01
-9.429780834402465928e+01
8.495148910741555426e+01
1.415222946337396763e+02
-1.647440534331471795e+01
2.560507421682445894e+01
1.695518994031722002e+02
-5.681679341495879498e+00
-1.842836135691304094e+02
-4.247512640132232775e+01
9.639743872699463978e+00
-1.344660277695229524e+02
-8.096093129668679467e+01
8.276434543566091406e+01
7.470533637435694629e+01
3.756509062723235104e+01
5.510239440155098833e+01
-6.719891759386706021e+00
-9.717405232628560441e+01
-1.074421976299169899e+02
-5.539795076706761989e+01
3.425166508755967953e+01
1.211462975965710456e+02
1.545402393131233509e+02
9.797358347030497328e+01
-7.505149519978397166e+01
-2.051401233843133127e+02
-1.120558433558291398e+02
1.002179808802632976e+01
-2.572938250749301048e+00
6.574318721147496092e+01
1.622300526104828577e+02
-1.737639311634187678e+01
-2.125019123523952658e+02
-7.251984191325757934e+01
7.037886339825868731e+01
-1.629159251231849836e+01
-1.413139555505073020e+01
7.867002873898266557e+01
-1.465569419980664989e+01
-8.034033379377655137e+01
8.894890125600203135e+01
1.656032740399991781e+02
4.749148185354589202e+01
2.550144033120665910e+01
1.673333244182988011e+01
-1.615328571334929677e+02
-2.117300538046811766e+02
-2.713981393754918869e+01
3.960051656108465323e+00
-1.327014705722843360e+02
-7.552094930792073058e+01
9.283567275244129746e+01
9.501720559128298760e+01
4.750211495902319569e+01
1.013564754503217955e+02
1.439288371661564838e+02
8.532209283908505881e+01
-3.069382493401827361e+01
-8.449908552573390352e+01
-5.622599440267049609e+00
-2.201787028401129831e+00
-2.217996063418600841e+02
-2.980688417159076380e+02
-2.342047307721355764e+01
1.291689684543666772e+02
-1.828300611774500339e+01
7.720148792862509879e+00
2.063553073322751175e+02
1.123486579636461755e+02
-7.144556167441099603e+01
1.199314200080465156e+02
3.871776052083251329e+02
2.735424804864889552e+02
-5.137791214004272433e+01
-3.283891603373598400e+02
-5.631235462880977138e+02
-6.598783547528236113e+02
-4.993160087099803945e+02
-1.714880824390172336e+02
2.275644956353102657e+02
5.976407835583235055e+02
7.186054957586633236e+02
5.429772763540628375e+02
3.054958675115389610e+02
1.491828076303343380e+02
-2.524093751710435285e+01
-2.700612296166041233e+02
-3.932300980862405027e+02
-2.627893164093886185e+02
-1.505708702832160384e+02
-2.974757546269703425e+02
-4.103127488065758826e+02
-2.372098413681972602e+02
-6.422755315167096057e+01
-6.425617433823441615e+01
1.455247107526500017e+01
2.395644556119864887e+02
3.705209533422158756e+02
3.176689173945827633e+02
2.345852515782249270e+02
2.591707125600544828e+02
3.383357603516205359e+02
3.182708065911996869e+02
1.222539535892579607e+02
-1.870319377433969521e+02
-3.526054402855553462e+02
-2.451248241560030863e+02
-2.499959167102572621e+02
-4.644404883302263443e+02
-2.752561818967237741e+02
1.405228350790494005e+02
-1.311506695092280381e+02
-6.494284285848145828e+02
-4.688896268575017530e+02
-1.320099196612603691e+02
-1.219141470531717317e+02
1.295481156803191425e+02
5.857156329228440654e+02
8.926839600649692557e+02
1.191995379146433834e+03
1.094514118356638164e+03
4.703104230651110242e+02
3.221452536321107232e+02
6.069577433896408820e+02
1.115819660754082747e+02
-1.013501896851693800e+03
-1.675847329994704751e+03
-1.778008541320621816e+03
-2.105983336207342745e+03
-2.648324413297992123e+03
-1.513848198229280115e+03
1.706912381704458994e+03
3.153875495526375289e+03
1.330994101122348866e+03
5.902506521432113686e+02
1.703067511753208237e+03
8.068543571451714342e+02
-1.773413448021324257e+02
2.296211393571587905e+03
3.847367187745604497e+03
7.129613035048838583e+02
-3.281804373803422550e+03
-5.015273857534202762e+03
-4.702813002264327224e+03
-2.335454926294123652e+03
1.706352949866355289e+02
5.640277333324793290e+02
1.931490251868673056e+02
-2.208498450498721013e+02
-1.190240375213473044e+03
7.223153658267355013e+02
7.132824724669547322e+03
1.074040678406245934e+04
5.408712676079768244e+03
-3.577822525165991465e+03
-8.439833384223875328e+03
-9.236913156105774760e+03
-7.274173530356658375e+03
4.139336902298934717e+01
8.924351208200450856e+03
8.953709459284820696e+03
2.738253505872961568e+02
-6.314021268608998980e+03
-6.434668193868051276e+03
-2.849559577369897397e+03
2.305877619699985189e+03
6.122337566858363061e+03
6.414334773963552834e+03
3.082489902337496005e+03
-3.947097621351702855e+03
-8.269019194808461179e+03
-2.753655461975632534e+03
3.245915022526256962e+03
8.888182857041647367e+02
8.088682757025947012e+02
5.325117068446077610e+03
1.629939857458064807e+03
-4.775853783637898232e+03
-1.944399367370169784e+03
7.041760344608002242e+02
-2.251862238393534426e+03
-1.250735973616749789e+03
2.375332897223257987e+03
2.861177240425726723e+03
1.986574451933727232e+03
-2.632330993311470593e+03
-7.767572718546719443e+03
-3.239696298019230198e+03
3.030230138528375392e+03
2.381406495514057042e+03
5.925273761661136632e+03
1.063643214763778269e+04
1.733306659951211486e+03
-8.110280174996100868e+03
-4.984972112180521435e+03
-1.377629662819387931e+03
-2.073253063211634071e+03
-4.022421978940675444e+02
-9.214725655904655923e+02
-3.013443706961750649e+03
1.897486092328459151e+01
2.675088234852314599e+03
3.781330872216231455e+03
7.097774898030880649e+03
3.064513185431902002e+03
-7.296975844366909769e+03
-7.524256166533007672e+03
-1.355780773971602684e+03
1.113533643088639110e+03
6.144239978654171864e+03
8.656515196932783510e+03
-1.044378104947717929e+03
-7.981710408656324034e+03
-3.631414690130435702e+03
-1.207356967188800809e+03
1.345855793672506024e+02
6.604681162074417443e+03
6.085069471667297876e+03
-4.042991746755251370e+03
-9.120799870996841491e+03
-6.014357320107594205e+03
-5.746221537690744299e+02
4.972597817698196195e+03
6.465386358557653693e+03
3.752544543504245667e+03
2.899173519957827011e+03
2.045236632601432802e+03
-2.671080557337206756e+03
-4.372612926187855919e+03
1.671777680860773216e+02
7.971039981728429211e+02
-6.008103407285267167e+03
-7.100337581532106924e+03
2.787208092677522927e+03
7.896576780850860814e+03
1.263416839931480581e+03
-1.783989041441714789e+03
2.274447320102984577e+03
-4.749547541303808202e+02
-6.495786382454341037e+03
-2.201076826354779314e+03
5.896632311062227927e+03
6.072886613996913184e+03
8.477830246333702462e+02
-2.898356907119517473e+03
-1.632954285433630730e+03
1.071852213223159424e+03
-1.330578747254067366e+03
-2.918634435722099624e+03
1.548193291765728191e+03
8.613766036986939980e+02
-4.926610059321835251e+03
-2.182840684979376874e+03
2.632187096616710278e+03
9.120422511156841665e+02
2.893196776261207560e+03
5.180145699555049760e+03
-1.875138723344741038e+03
-3.328086696657991979e+03
4.031877884557415200e+03
3.995506689724261378e+02
-7.052253397993455110e+03
-8.473328740923102487e+02
4.074939532821915691e+03
-2.158068337569975029e+03
-2.843891905229823806e+03
4.190610533532334557e+03
5.121719641431131095e+03
-6.922095155507734034e+02
-5.011096325213182354e+03
-2.766765960929475114e+03
2.492443049498562232e+03
7.795125533951413672e+02
-3.677293762399492152e+03
1.052776330197900734e+03
4.990345990578493002e+03
-2.204451812434837848e+03
-4.177714971970857732e+03
5.655222213286982878e+03
7.954214901402410760e+03
-1.043630417475278364e+03
-5.239618265589680050e+03
-3.114037755203940378e+03
-3.948068263023436430e+03
-5.506085272577356591e+03
-1.050294590460664267e+03
5.890937166553469069e+03
6.612904846847106455e+03
9.909776358201617086e+02
-2.038645872354739595e+03
1.373228615400858416e+03
3.921459007557204131e+03
1.240519885507178799e+02
-3.514856096759246611e+03
-9.616646918684588172e+02
-1.927745934546396995e+02
-6.469904278285117471e+03
-6.511914799162824238e+03
4.315353634712960229e+03
7.086914672049406363e+03
-1.750760060559488011e+03
-2.151244326881995221e+03
5.594016833041705468e+03
4.389210778983579075e+03
-1.662274590186505293e+03
-1.066197248981628263e+03
1.374537297879275684e+03
-6.083368864372388316e+02
-5.039236354661396945e+03
-5.812385815972159435e+03
1.498822068401565957e+03
6.372058629793526052e+03
-1.776534681473747014e+03
-7.024536230426653674e+03
2.059986158294970664e+03
5.909430756284970812e+03
-1.805513149587076441e+03
-1.021803964204996305e+03
7.304403189079629556e+03
4.809182774445840550e+03
-4.072118774131479313e+03
-4.087308701210732579e+03
1.995002505152806179e+03
1.365408447582635745e+03
-6.783216922548465845e+03
-8.832202338699016764e+03
-6.813888977875989212e+02
3.779590250358980484e+03
2.304379145988752498e+03
5.872377186644953326e+03
7.708841572390135298e+03
-7.482305612714363861e+02
-6.398619042540874943e+03
-3.690604047162558800e+03
-7.704650902319284569e+02
4.636277631409060632e+03
8.477118815440384424e+03
-1.070758132184738770e+03
-1.018328716419404736e+04
-4.948975699742666620e+03
-1.743869035228200801e+03
-3.246355011330008438e+03
6.818812211803218815e+03
1.433248156156647383e+04
1.645215805962419608e+03
-1.032232827999558867e+04
-6.991494110238082612e+03
-3.048224431077629106e+03
-1.056352926569600413e+03
6.093311472323400267e+03
9.398130745701033447e+03
3.975861263579824936e+03
-1.399956413356192797e+03
-4.281170376084559393e+03
-4.914812347962277272e+03
-1.614724039034414886e+02
4.037582024302804257e+03
7.589590406149425235e+02
-3.897743315401670316e+03
-4.823013511530863070e+03
-5.175800931919205141e+03
-3.631446154231496621e+03
2.791643401055511276e+03
9.112019617179430497e+03
9.980621589328475238e+03
5.657299619162940871e+03
-1.363219616281051231e+03
-6.437278358467888211e+03
-6.488463191409404317e+03
-4.332494138872303665e+03
-1.225713960511024425e+03
3.829676927236711890e+03
5.124185670513308651e+03
-4.474011569074067438e+02
-3.996030607233797127e+03
-2.127548055306008337e+03
-1.730649406784689518e+03
-5.320859188629227674e+02
5.669273506495461334e+03
6.263307112268584206e+03
-2.208668188484197799e+03
-4.710510753826630207e+03
6.216848195187956208e+02
1.581973140194750016e+01
-2.714624624297038736e+03
3.494874261344515162e+03
7.177360846166663578e+03
-2.067777694296479240e+03
-8.370420578183962789e+03
-1.603893726898182422e+03
3.243281363183186841e+03
-4.369796169298221002e+02
-7.284455707636632269e+02
2.584345752052609896e+03
-2.803892517713025541e+02
-4.521385973324284350e+03
-2.058514145455224025e+03
2.510547685760829609e+03
5.522408924203051356e+03
6.934385646925534274e+03
2.412639611791063089e+03
-3.999521351415429763e+03
-2.722058357620384868e+03
-1.200856620016010993e+03
-7.618457293197303443e+03
-8.560226400814166482e+03
1.412638654338519473e+03
5.332720356042543244e+03
9.265943192473404224e+02
3.772906582813964633e+03
1.040137642038310332e+04
5.179846744993954417e+03
-6.477134023239305861e+03
-8.252677306767573100e+03
-1.673446126279259488e+03
1.064782330961364323e+03
4.397214259519626580e+02
3.194893345977229274e+03
3.554384619004030810e+03
-3.911059109698566772e+03
-8.147733444383816277e+03
-3.149879933424227602e+03
1.168922264335335285e+03
3.095588980170853119e+03
6.754221183340606331e+03
4.320319067627919139e+03
-3.446979326388087429e+03
-2.142631812428526246e+03
3.627127179607127800e+03
6.286080320139807327e+02
-2.587150388525408744e+03
4.114125550864116576e+02
-1.120061715927259684e+03
-5.139616541504648922e+03
-1.260753054107532989e+03
3.572187892419490254e+03
2.336939193954755410e+03
6.280141068095288119e+02
-1.079782481345523593e+03
-3.884210501174605724e+03
-1.395769285973098476e+03
4.303150427902150113e+03
3.178701980358635410e+03
-2.806227479894211228e+03
-4.076704753672925108e+03
4.193630678514625743e+01
3.189957266199671267e+03
3.419538239869978952e+03
5.086355812152265571e+03
6.730138953276746179e+03
-8.481914042802688982e+02
-1.288459246414466361e+04
-1.139036790451223897e+04
1.323795972817492839e+03
5.430553853397786042e+03
-4.220365384916262741e+01
-1.514685453803662767e+03
1.335105586047629913e+03
1.034122658072715240e+03
-1.157947439614524683e+03
1.592635141786854547e+03
9.141374569820169199e+03
9.360002066870953058e+03
-3.074566208484407525e+03
-1.056747434525958488e+04
-2.349004261130580744e+03
3.344978862030439814e+03
-3.101417947683242346e+03
-5.464108014373995502e+03
2.662016377776006948e+02
1.386857936401535198e+03
-1.666837818839541796e+03
-1.466548322267104368e+03
1.435480927053645246e+03
4.712899943245531176e+03
3.505795950963223731e+03
-3.057508585140632476e+03
-1.302331562239743562e+03
9.976048677361091904e+03
8.325591966507599864e+03
-7.132614104278173727e+03
-1.105649964818047738e+04
-2.869389993847667029e+03
-1.528836463249002918e+03
-3.366382594073495511e+03
3.391982816057868149e+03
1.022650697591062635e+04
4.951738387877066998e+03
-7.358969307277479857e+03
-1.074188665400911123e+04
-6.825430001687045944e+01
8.072663715822211088e+03
2.099228693836108050e+03
-2.686014929363143438e+03
2.935567574642825093e+03
3.401333846812581214e+03
-3.422373330280461232e+03
-1.285018950105829845e+03
5.871348626840331235e+03
2.935569717302130812e+03
-5.548073649691469654e+03
-8.965799948315610891e+03
-5.579316975279393773e+03
3.218888577021805304e+03
8.465829468094474578e+03
2.705476430224089654e+03
-2.355066425695680664e+03
5.155796987268255407e+02
-1.828997424542469389e+03
-7.705530374287423911e+03
2.998586369040003063e+01
1.151801679013408102e+04
6.663162531918233071e+03
-3.839835265021549731e+03
-4.292167879750779321e+03
-1.658707379244296590e+03
-1.579734896715395962e+03
-7.056793821534267863e+02
-3.763831648114960444e+02
4.503822487065603468e+02
2.561357120433856835e+03
-1.182691675288646593e+03
-5.214790671037725588e+03
2.439764482707298157e+03
7.501065842489161696e+03
-2.636584489846960878e+03
-7.191340762587278732e+03
1.981853487114375184e+03
4.293999826458094503e+03
5.477901439904502467e+02
4.300019399043674639e+03
4.773380795313260933e+03
-3.267433783433827557e+03
-6.687202269710759538e+03
-6.767205096233821678e+03
-6.094537282249853888e+03
3.486819348614977571e+03
9.613126033194917909e+03
7.136457443466475752e+02
-2.228975165233086955e+03
5.129681659002530068e+03
7.765692189185092786e+01
-7.571933288594123042e+03
1.394450447323611797e+03
6.248207285359195339e+03
-3.416083352337141150e+03
-4.510308011320299556e+03
2.941672673927988853e+03
2.663962491159481942e+03
1.246649658478226684e+03
1.313099813102906182e+03
-4.746086483516417502e+03
-6.114432037817371565e+03
7.461096236953829930e+02
2.430024717017197702e+02
-5.820373559205054335e+02
9.497709080274098596e+03
7.994745321152384349e+03
-9.910822493369916629e+03
-1.077469952329776970e+04
4.618523694920841990e+03
4.029267596706664335e+03
-3.101903683580360394e+03
6.083070526882445847e+03
1.029730884866346605e+04
-5.455828056801859020e+03
-1.278448831378730210e+04
-7.348232076740137018e+02
5.280979146925489658e+03
-8.694734380493578101e+02
-1.608744348747042977e+03
3.415686690156854183e+03
2.106121585346314532e+03
-3.438862413916367132e+03
-3.117462947840244851e+03
2.412200774682418796e+03
3.007778027242401095e+03
-2.776138962558706680e+03
-3.378443196112283204e+03
3.468639438493600210e+03
5.318487913547911376e+03
6.866433936815723200e+02
-5.433741512544576153e+02
-1.908368315239495701e+02
-3.243730246759622332e+03
-3.479071518866217957e+03
1.076952388994680177e+03
3.488706362864496896e+03
1.739727642325103943e+03
-2.467966029691983294e+03
-6.606248053755572073e+03
-5.124207426316789679e+03
1.171996625731171434e+03
5.223568338943545314e+03
6.169262749503738632e+03
4.913041448636919085e+03
-2.028722229716736933e+02
-4.678495348296158227e+03
-3.273163892758763268e+03
1.592889822832118853e+03
5.676676139264346602e+03
4.136725328164022358e+03
-3.915410807733111142e+03
-8.595040765455509245e+03
-6.753164016314723085e+03
-5.818511918989252990e+03
-2.154857917704237593e+02
1.242339571858516865e+04
1.193998213607721300e+04
-1.434224698197893531e+03
-2.609234243533203880e+03
1.649731234369046206e+03
-6.473081061802934528e+03
-7.672531109711341742e+03
5.333837748358615499e+03
4.719843218851239726e+03
-6.687620270723487010e+03
-2.317302124824747807e+03
6.736038613657501628e+03
2.119618862302189882e+03
-1.702520926347440081e+03
2.958374482319597064e+03
2.618490428356620214e+03
-3.076831779130206542e+03
-4.023973131715048567e+03
-9.180033289164442749e+02
1.722971717960444096e+02
-2.647115216271876761e+03
-4.745633680829441801e+03
-5.583492997455687146e+02
4.586911823240616286e+03
3.711607231664366282e+03
2.867659075904960446e+03
5.250108766331364677e+03
2.748637704818968814e+03
-3.134734854911448565e+03
-2.770209994417853068e+03
4.075718740028835327e+02
-1.953918219011683505e+03
-6.038090126099894405e+03
-4.723358855246377971e+03
-2.598314697574315346e+02
1.318758899551338345e+03
1.312534757491767550e+03
4.322136020473636563e+03
5.420862662294085567e+03
-6.684755185610747503e+02
-3.492984889801324243e+03
3.424917178416123079e+03
5.852433653862673054e+03
-1.692302496588335771e+03
-5.167295834193910196e+03
-3.516798322942882351e+03
-6.302815079943618912e+03
-5.795767574518251422e+03
4.814799939062676458e+03
1.111785228506707426e+04
5.286897796968516559e+03
-9.226712566498133583e+02
-1.975829252242971279e+03
-3.254881670161562397e+03
-3.323269257994520103e+03
1.414988195531818292e+03
3.678887249784784672e+03
-2.546646293318175140e+03
-7.778442020894846792e+03
-3.676105710105008711e+03
1.149928162550382240e+03
1.560415476068619228e+03
6.324567372315226748e+03
1.151362234173124853e+04
3.727821967929446146e+03
-5.952477511450829297e+03
-1.693777730399112215e+03
1.706944325568018940e+03
-7.234820774117983092e+03
-9.900276995103040463e+03
-4.362967881569319957e+02
2.452685546321190941e+03
-8.769973939088323505e+02
4.689876677931620179e+03
1.113052616057503110e+04
3.752164764663446931e+03
-7.534935377460730706e+03
-7.959344344756032115e+03
-2.488008188100663119e+03
-7.363817529282844987e+01
1.842640230276916327e+03
5.018823899384217839e+03
4.694203474916347659e+03
1.459321764336633350e+03
-4.620637433848314117e+02
-1.944117945431156159e+03
-1.809339043635143071e+03
1.450477486076903460e+03
-6.951105586917487926e+02
-8.387050720680665108e+03
-5.120762570205176416e+03
5.830462861414323925e+03
2.910113304535691896e+03
-5.091279169586638091e+03
2.646038244213979851e+03
9.027271125503870280e+03
-2.423498654320641890e+03
-6.792534457446746273e+03
6.523280374844747712e+03
8.454537626145600370e+03
-5.532586096552438903e+03
-6.805082715684720824e+03
3.862301983404954171e+03
2.365716651857047509e+03
-5.378180149483953755e+03
-1.133969805264412116e+03
4.465640033501283142e+03
-2.284408974635391132e+03
-8.311140283783099221e+03
-2.694703962133619825e+03
3.493674182513030701e+03
3.341976950506512821e+03
3.781393140692241559e+03
5.808347129822447641e+03
3.736485235405904405e+03
-1.399585728682117860e+03
-4.219747064155120825e+03
-2.965693755496291033e+03
-7.514122134093480554e+02
-1.339479096075447387e+03
-2.095460754807834292e+03
5.756063791848923756e+02
8.983068561167666530e+02
-3.062096491203168625e+03
-7.141696170689666587e+02
6.669437296605109623e+03
4.513745135579942144e+03
-2.341365984849257075e+03
-4.783461219408140863e+01
1.729048377507507212e+03
-5.527142424267740353e+03
-6.177830858530470323e+03
2.925685962252499849e+03
4.214433773826490324e+03
-1.421956575678815852e+03
-1.448809983633797856e+03
3.600216102520110439e+02
1.135760299845130021e+03
4.548254477303104068e+03
3.397200641395825642e+03
-1.607280956363624227e+03
1.024305047193399560e+03
-2.522781327685292467e+02
-1.325719460184812488e+04
-1.009663843927084963e+04
1.019477312468797390e+04
8.824040807051442243e+03
-5.422215276773442383e+03
3.803432635813257093e+03
1.298409582455144846e+04
-4.186527843456427036e+03
-1.301033570570859592e+04
1.044112775559134889e+03
4.737130840346006153e+03
-4.404905795663396930e+03
-3.881365091047838632e+03
2.736637355405745438e+03
6.180763135165280801e+03
5.048557674765362208e+03
-2.823868492762143433e+03
-5.116522666402876894e+03
3.395120925156746580e+03
-1.510353683212153619e+01
-1.254327197080439510e+04
-3.823400064860415569e+03
1.227829276282190767e+04
4.714228284269124742e+03
-6.073744845869796336e+03
2.895742530043942224e+03
8.696783429835186325e+03
-2.244448510799086307e+03
-7.974195875472335501e+03
8.692987641697171739e+02
6.015246384528501039e+03
-1.834780236120819836e+03
-7.418262208756771543e+03
-1.629493173987265436e+03
1.143351828816373427e+03
-3.445922507117164059e+03
-5.545561196187163659e+02
5.837427823859570708e+03
3.149369376821578498e+03
1.663684054699434228e+03
4.014813905908338256e+03
-1.447772377613968501e+03
-3.299107529987931684e+03
4.191506414325938749e+03
-5.168929164354082104e+02
-1.042069616664761088e+04
-2.513193542835461813e+03
5.065603550683300455e+03
-5.464018199604876145e+02
1.429119721822930160e+03
5.991856274474372185e+03
-1.948007936736628380e+03
-5.222989292896756524e+03
-1.203759679355840490e+03
-3.349111284193825213e+03
2.028370920876802074e+03
1.202709756029601340e+04
6.807594880065028065e+02
-1.183819492621008067e+04
-2.908475874062995103e+02
6.156670869938272517e+03
-2.735441240069516880e+03
1.996210903468718016e+03
1.126018685409288628e+04
5.370855847228399398e+02
-1.260100235127172709e+04
-9.460144691306913955e+03
2.727785772257244616e+02
5.029703626943875861e+03
1.652811283707724897e+03
-1.975965155292869213e+03
1.825659637595658523e+03
1.373581712350170619e+03
-4.420767711545365273e+03
2.881168267900401588e+03
1.185010081493833968e+04
1.900700638933150231e+03
-7.073465834329513200e+03
-2.598241010785664912e+03
-2.695081808951730181e+03
-2.899777987980510716e+03
5.712239755248192523e+03
4.376174324773502121e+03
-5.412130214757013164e+03
-4.350422954001608559e+03
-1.827463431423357406e+03
-3.731186389418686304e+03
3.040445642684254835e+03
8.258947233264812894e+03
9.852313329654193694e+02
-1.948472886640270190e+03
1.066429150971176568e+03
-2.368119465627300997e+03
-1.893770055222457358e+03
5.546255177142458706e+03
2.317449362593881233e+03
-6.178802790636054851e+03
-2.017625951629564042e+03
4.830228720043645808e+03
2.937524376765434226e+02
-4.065229681540421097e+03
1.568916532514317623e+03
2.948648372656025913e+03
-6.961751393351531078e+03
-7.122567913752707682e+03
7.870911918334903930e+03
9.325824813524226556e+03
-4.178650348032136208e+03
-2.484252850180466339e+03
4.603347804395276398e+03
-6.969924983996669653e+03
-1.160126501390073645e+04
5.708653594549526133e+03
1.163425577724629693e+04
2.556511632862306215e+03
4.882666257984224103e+03
7.344252032223467722e+03
-5.238438089125671468e+03
-1.338003332735584809e+04
-9.104729169126636407e+03
-4.036977036697548556e+03
1.313562501449789352e+03
6.215069706228642644e+03
6.284963391117424180e+03
5.574592488567950568e+03
2.186497364524092518e+03
-6.639575876441210312e+03
-7.870393314961327633e+03
1.916158369274067809e+03
6.520454468391452792e+03
2.232591189422829302e+03
4.016099566985697038e+02
2.829541365444709299e+03
9.723648990606072857e+02
-7.134293847471571098e+03
-9.067842515485963304e+03
1.559073801593704729e+03
6.703549273715365416e+03
-2.340530340674125910e+03
-3.822603375443027289e+03
6.734562244948988337e+03
5.724151629285618583e+03
-5.528007067267825732e+03
-5.065462429458208135e+03
4.186591782126768521e+03
4.967759552141541462e+03
-3.808716346470745975e+03
-8.146651685641215408e+03
4.112955078214271225e+02
6.651324045880536687e+03
-1.793431485142187285e+03
-2.584707977970852880e+03
1.252072028787628005e+04
1.002321696315383451e+04
-1.051519611973117208e+04
-1.116506043872363807e+04
4.924423414731169260e+02
-2.924358003592705700e+03
-4.500879770820300109e+03
5.273534455294792679e+03
4.650137665622303757e+03
-1.636301526092594486e+03
8.772574759074348094e+02
-1.933874799753903346e+02
-2.752571713516909767e+03
6.570856433101330367e+03
8.835391739449401939e+03
-4.948058532756925160e+03
-6.971119976741928440e+03
3.591353829735306135e+03
1.109101110312392393e+02
-8.301827358662907500e+03
-1.141614798414866300e+03
5.934407985148262924e+03
-3.308074108882407245e+02
-3.683073791492096007e+03
2.119736280914832605e+03
4.046456444856430153e+03
2.932951245846456345e+02
-2.058291717628580955e+03
-2.863276529630865298e+03
-1.121213150028748714e+03
4.069433538796753510e+03
4.503148495943223679e+03
-1.120425933732502472e+03
-1.021679922778876289e+03
3.120223569778045658e+03
-2.111835734473225330e+03
-9.175180564903459526e+03
-2.402960754636429101e+03
6.200069308173646277e+03
-2.672384572206435678e+02
-7.240930767585114154e+03
2.217216888012481832e+03
1.177750812198117092e+04
4.216970744903729610e+03
-3.847421863372316238e+03
2.777475320117232968e+03
5.118259345937348371e+03
-8.628327820510137826e+03
-1.411527488099961374e+04
-9.224365778408863434e+02
4.842685541719892171e+03
-3.355016926531152421e+03
-1.217898803043971157e+03
1.014250465442866698e+04
7.843900446666819334e+03
-2.084107718921921332e+03
-1.176311767206772629e+03
1.853073540490303458e+03
-3.885960546290064030e+03
-5.838081039869340202e+03
1.382954843350610872e+03
3.308092933707881002e+03
-8.456039688806507684e+02
1.866468526531527232e+03
4.369662873969206885e+03
-4.527667611564361323e+03
-8.811830109605136386e+03
3.528528978494338162e+02
1.564349041453893051e+03
-6.348668021465171478e+03
9.421390026991466584e+02
1.379324266632606850e+04
6.741545535543997175e+03
-4.478587155498938046e+03
-9.513781712250053602e+01
2.572960826052110860e+03
-5.810095942036083215e+03
-7.582911498107605439e+03
8.506913428158458146e+02
4.934652936756877352e+03
9.191143442906214034e+01
-4.829719520978835135e+03
-1.709969576155322102e+03
4.123224361509167466e+03
2.492722496406482151e+03
-6.078283460241373177e+02
2.402719391213460312e+03
1.678225164587378003e+03
-4.624816409671076144e+03
-4.619639830335953775e+03
-9.550517075118658568e+02
5.378463500544781937e+02
4.759791129320420623e+03
5.307838177283526420e+03
-2.009129728994130801e+03
-1.037457330738209066e+03
5.743112576274626917e+03
-7.472898772997751848e+02
-7.615386864804514516e+03
-1.001795269160030699e+02
9.342452289282177844e+02
-8.626288099379937194e+03
-4.245464844682163857e+03
8.234481760489608860e+03
7.014889123999793810e+03
1.867233149194483303e+03
3.288347591030584681e+03
-1.048086371198960478e+03
-9.469052780807818635e+03
-6.389222415971252303e+03
2.606599111583069771e+03
4.715237007696126057e+03
5.636602372748184280e+03
8.216300966004575457e+03
1.179453449966465541e+03
-1.121319788252885155e+04
-1.088547535006349062e+04
-1.814401014947800149e+03
1.371661778401069114e+03
4.318154799283403918e+03
1.076078683312944122e+04
7.287087810948490187e+03
-4.302125230793620176e+03
-8.235018346090206251e+03
-5.842047017784815580e+03
-3.580495294253432348e+03
1.395612553394345923e+03
5.247642147929048406e+03
3.068550733947778554e+03
7.304954024172957361e+02
4.562687406597451627e+02
-9.838270032300439993e+01
1.011824173708495323e+03
2.083967826234520089e+03
7.667370522160402970e+02
-6.366543953127634268e+02
-4.127680054200349332e+03
-7.097244864525181583e+03
-1.189258803165125300e+03
3.916681400773096357e+03
-1.389832875808518111e+03
-1.770049833526566545e+03
5.364970848610752000e+03
2.829581262617117318e+03
-1.784465778294244956e+03
3.852555649893478403e+03
4.883659787198083905e+03
-2.311836989593097314e+03
-4.165393811816899870e+03
-3.864653697013335204e+03
-3.326161880739567550e+03
3.570320893016180435e+03
4.902163927797475480e+03
-2.905672374225604472e+03
-2.392989761235383412e+03
4.967165635065741185e+02
-6.948240906619802445e+03
-5.415885758199598058e+03
1.010830738994481362e+04
1.262811277889318808e+04
1.767089981390995717e+03
-1.173265933966178864e+03
-1.006609231053524695e+03
-7.905540516511770875e+03
-1.054834774815323908e+04
-2.215067603530595534e+03
5.834430545200224515e+03
5.554420367187884949e+03
2.822608948319471438e+03
3.299055592097703538e+03
1.769462421122558226e+03
-3.545347166576615564e+03
-4.406613084418987455e+03
-1.861283727195034999e+03
-2.770390746281514112e+03
-1.329148970696687911e+03
4.021391757558090831e+03
3.489709903875455893e+03
7.230921874337386726e+02
2.643203840996940471e+03
5.712500385848501310e+02
-5.305681088710847689e+03
-3.526890981874882982e+03
1.639503099550925072e+03
2.211652291777896153e+03
1.762946455651589531e+03
1.246372155478257127e+03
3.037964799898510364e+02
4.504986398343292109e+01
-4.003550138597556270e+03
-6.721637755153094986e+03
9.680772970653141556e+02
5.055762545120697723e+03
-1.792679387287501186e+03
6.875732981698633921e+02
9.500757945361398015e+03
1.967006591028403363e+03
-7.942087511985655510e+03
-2.201962277922818885e+03
7.195795369651875717e+02
-4.433100282169770253e+03
-1.775436544671882473e+02
6.383452439922495614e+03
3.176110193526926651e+03
3.176391273974829801e+02
-1.006839841023883650e+03
-6.090301675434036042e+03
-4.255282271053361001e+03
3.195671475724265292e+03
1.179772340143875681e+03
-1.939238241972854212e+03
4.507532356244094444e+03
4.785306747818752228e+03
-4.565561043397227877e+03
-3.806048122955258350e+03
4.854425990989390812e+03
3.479043666256736287e+03
-2.453768898444705428e+03
-1.167290874759367398e+03
5.286764175174348566e+02
-2.794261716433686161e+03
-5.138437543924215788e+03
-3.309128179841052315e+03
1.962154840265328630e+03
6.938189927388048091e+03
4.820811148927501563e+03
-2.425259106668696916e+02
9.742065876854304634e+02
9.122230791836867638e+02
-6.646066074775223569e+03
-7.165374853422762499e+03
2.988761535750751591e+03
6.322776332922800066e+03
8.657416473261428109e+02
-8.974135250118230260e+02
-2.406351439078002272e+02
-2.232191985221906634e+03
-3.460298454067629791e+03
-2.558677625679858465e+03
7.990062916497603283e+02
5.782383651067741994e+03
4.612496387198375487e+03
-1.279718322287615820e+03
3.267671479316496743e+02
4.790968768427417672e+03
-1.001201839500981009e+03
-8.669219765851337797e+03
-5.668468749220544851e+03
-2.112919606051897290e+02
-9.927610952190287890e+02
-1.500948552731969343e+01
7.412384029768620167e+03
9.781720511468560289e+03
7.977733172610107886e+02
-6.622462378046213416e+03
-4.430377174354849558e+03
-2.258279047296339286e+03
-2.003984832311766240e+03
3.242084370344384752e+03
5.621508712079360521e+03
-1.059836711577074055e+02
-1.927354195357048184e+03
-4.318171866950619346e+02
-4.201696037920779418e+03
-2.409926103031067214e+03
6.428332606836160267e+03
3.574235837144543439e+03
-5.505664611847570995e+03
-2.495551665397606939e+03
2.559751530581485440e+03
-3.443926571114653825e+02
9.830376137837103556e+01
4.336138956133264401e+03
3.309875139156954447e+03
-4.995563594754769383e+02
-4.422448817739944388e+03
-6.278722328009953344e+03
-4.601501425850991041e+02
4.246903488058028415e+03
-1.550296267176977381e+03
-3.766253377704171726e+03
4.289987708092512548e+03
5.192579636624843261e+03
-2.668327770739707830e+03
-1.437245715479349428e+03
6.299615160935099993e+03
3.351808057136214757e+03
-6.488037231498899928e+03
-6.044973789708363256e+03
2.714185910246449112e+03
3.086559885124360790e+03
-4.141970618999999715e+03
-3.319444981269278287e+03
3.431745550582887063e+03
1.839778181070060555e+03
-3.517660939574102940e+03
-6.797670580377743477e+01
6.117588838576612943e+03
3.286962614302778547e+03
-4.100798380708097284e+03
-4.508846626912983083e+03
1.305656507752342804e+03
2.855109840730599444e+03
-4.693012485609781379e+02
4.307304826169980174e+02
3.223341927295148707e+03
-6.095086691392393732e+02
-4.683348807254529675e+03
-1.423720161114099028e+03
1.541819239826997091e+03
-3.843608347683635316e+02
-1.768559844177985951e+03
-1.826950893237572927e+03
-1.556532272645222747e+03
1.357727879144138797e+03
4.481018020654156317e+03
4.401795938530372950e+03
2.798947878581500390e+03
2.298398824892188372e+02
-2.843964899358841194e+03
-3.289051352567551021e+03
-1.938730107429243390e+03
-1.412332060723131235e+03
-6.188989165411500153e+02
1.857505321910776175e+01
-7.879028375292534747e+02
-1.861755196629772229e+02
2.912346580334243754e+03
4.723238163650269598e+03
2.534045956970236603e+03
-2.253458185287892320e+03
-4.777753846386464829e+03
-2.636467398237049565e+03
-7.558567870998807621e+02
-1.028766160633014579e+03
2.223218394826838903e+03
6.645952461913490879e+03
2.974467810127949178e+03
-4.466940393591684369e+03
-3.740221341571311768e+03
1.868003303332101950e+03
6.937666476115575733e+02
-4.066635506340573102e+03
-5.478472141520354626e+02
6.230556533318686888e+03
1.973065656692491075e+03
-6.017212920505829061e+03
-1.792337532140231133e+03
4.529244793681985357e+03
-1.233165020039581123e+03
-5.266089111432994287e+03
2.639415800110935379e+03
6.224970131291291182e+03
-1.263096241990549061e+03
-5.235713143886279795e+03
-8.478933730961119863e+02
2.687300268348004465e+03
1.471946129418072587e+03
5.750864713165859143e+01
2.406799276143580300e+03
3.771428719794619610e+03
-2.185724780328658653e+03
-7.179534850651628403e+03
-1.516639253526754146e+03
4.152132634685844096e+03
-8.669529246275939727e+01
-3.554287145654406231e+03
-9.335561858222290255e+01
8.983166061116434093e+02
-1.730132704240316571e+03
2.331906443901437740e+02
5.220075975636086696e+03
5.418183895073749227e+03
5.706305725624828256e+02
-3.293938414308928259e+03
-2.843911430506420857e+03
-9.168253947492265752e+02
-9.149179522349604667e+02
-1.264244350086894656e+03
8.795477429226592392e+01
1.076637032903412091e+03
1.129334218091233879e+02
-5.943498811255154806e+02
7.286171844882061350e+02
1.857052953694805410e+03
-1.897685799653720551e+01
-2.996965689256236601e+03
-2.945380115190292599e+03
2.091023444758287724e+02
3.584449880632261738e+03
4.970594375834288257e+03
3.267351616794917845e+03
2.268534473109903615e+02
-1.771689563740182848e+03
-4.447454362620623215e+03
-7.171398307887408919e+03
-3.898476085402378430e+03
3.443813971935182053e+03
4.996859835334186755e+03
1.142675949497672491e+03
6.484961835018234524e+02
3.226552621479556819e+03
1.622210170905749237e+03
-3.575008791947996997e+03
-3.676159940643557093e+03
2.387942223100434603e+03
3.023717599580666956e+03
-4.332420965141611305e+03
-4.794683312395699431e+03
3.393034494259742587e+03
2.863348315429478134e+03
-4.592767593319883417e+03
-8.781179097166158272e+02
7.598138646216938469e+03
3.881962140002486194e+03
-3.333487305288064817e+03
-1.301938459425550946e+03
1.300165725695875381e+03
-2.449700020402055088e+03
-4.448402834558577524e+03
-1.226552527970013671e+03
1.387975954680790892e+03
1.319011715597029706e+03
7.266305240803455945e+02
1.773142021574963962e+02
4.078128799572037906e+02
2.026023376182314223e+03
1.834550798042330371e+03
-1.211717710107787980e+03
-1.377589453559172398e+03
1.665483453705329794e+03
3.355786352579068534e+02
-3.205654981808148477e+03
-1.163857388665597909e+03
1.189318603639546609e+03
-1.275309523019211156e+03
-1.436952352099629479e+03
9.991758732092179116e+02
6.709560777653218793e+02
1.870923859697016269e+03
3.516456107723388868e+03
-9.200286816446840703e+02
-2.626225272519820010e+03
1.960233228770601727e+03
-8.409932350882068022e+02
-6.193421222514586589e+03
-2.515011876388295207e+02
4.016409451754529982e+03
-7.902577963379742414e+02
1.190204391627394671e+03
5.855476798586217228e+03
2.450190730325884303e+01
-3.733656052099609042e+03
-7.217573929537767299e+02
-3.317077881156496460e+03
-3.680182839604212404e+03
4.518127971984171381e+03
4.966704311317342217e+03
-1.185802322490917504e+03
-3.774288387123918369e+02
-9.080275797182263204e+02
-5.398315331797472936e+03
-1.601375501006585637e+03
3.667895208024364820e+03
2.178833779702241827e+03
3.229857909430231757e+03
3.410669498359837689e+03
-3.712644795142949533e+03
-4.229438717369072947e+03
2.046353237340536225e+03
-5.665524066936566214e+02
-4.055021022886532592e+03
1.574581468391570297e+03
3.095870422118738134e+03
-9.894297630144744744e+02
1.156654636992044743e+03
3.595163801043204330e+03
-2.659003871719214658e+02
-2.836640221763562749e+03
-3.276820082891483707e+03
-3.993041924801622372e+03
-4.840728629367572466e+02
3.867278034181380008e+03
2.673376690524984042e+03
8.401101447024699382e+02
1.012927136438237653e+03
-5.662789895131658113e+02
-1.179150578918480051e+03
1.353471698695735085e+03
2.392039523076987734e+03
1.088133746320919045e+03
-7.876908501514069485e+02
-3.731275546616369411e+03
-4.525608416453640530e+03
-8.716663741226107049e+02
1.696756900448275928e+03
4.408568183543356440e+02
-3.144924470985343987e+02
2.479031010761871414e+02
-4.015349761512263740e+02
-5.356686299809512093e+02
2.319768659721806216e+03
5.400314495929026634e+03
4.439239083060075245e+03
2.399093618829377306e+02
-2.809391753641770265e+03
-3.463469751685820938e+03
-3.509717330225450496e+03
-2.802098969727817348e+03
-7.714807779484375487e+02
7.107946579191009278e+02
5.384343484813955456e+02
-8.574676510963971054e+01
-1.027846252597842494e+02
7.161957461475436730e+02
1.810328196807526410e+03
2.131303341638083566e+03
1.696923585348611141e+03
1.072283009510409556e+03
3.135655198419484577e+02
-3.364006809838654704e+02
-1.017112969243708790e+03
-1.936094059915058324e+03
-1.885666512156318731e+03
-8.897066874809751198e+02
-8.440137125183206308e+02
-9.150263604483385507e+02
4.970809931232574286e+02
1.205410414590605342e+03
2.273959734308327540e+02
2.063350818404662732e+02
1.179525834541450877e+03
1.214688202872290731e+03
1.011480689354457581e+03
9.563009160288372641e+02
-3.310443450080171601e+01
-1.206389476642657883e+03
-1.628200226781095125e+03
-1.677196694555226713e+03
-9.168942591151696888e+02
5.361621037930279954e+02
1.146178545682135564e+03
9.032407093736046590e+02
5.255156943899768294e+02
-2.946813814390271773e+02
-8.223743056510008955e+02
-2.235507922932320639e+02
2.918619312494097926e+02
2.690804758276609618e+02
5.257818376711238670e+02
3.186040339058328641e+02
-7.250947194221174641e+02
-9.874006181926197314e+02
-2.769519549455577589e+02
9.706289315018213415e+01
3.106952280661260488e+02
7.773921838133862821e+02
7.525237700229712345e+02
2.281545579470869711e+02
-1.632970863576309029e+01
-5.266474054483690992e+01
-2.929793807305087512e+02
-5.178742650506535483e+02
-4.270533261179627971e+02
-2.999959596883047652e+02
-4.555452031413547047e+02
-4.264937902285530527e+02
1.479569479395642020e+02
4.255491363747354967e+02
5.428201186797200251e+01
1.828856867527953227e+02
8.408528240160737823e+02
6.023776093916641230e+02
-1.851004041782628349e+02
-6.882496629374364261e+01
3.088927463861937213e+02
-1.760551659578311217e+02
-5.401030115389480670e+02
3.116283955255947546e+01
3.193300151120014903e+02
-3.965290954035874620e+02
-9.270331200536273855e+02
-5.434839311156894155e+02
-1.385670139969149375e+02
-1.810534799538214088e+02
8.108778144248501007e+01
7.138703760166680468e+02
8.160497562256965693e+02
4.139685812093462687e+02
2.899887807530300279e+02
3.909213443636240299e+02
2.508783740026891849e+02
-1.080688724659757440e+02
-5.211885918324816203e+02
-7.544477314637987320e+02
-6.076992776451191958e+02
-3.955284252798016382e+02
-2.891728851269151619e+02
4.328951327659800086e+01
3.905316813394078395e+02
3.068528951721564226e+02
1.533679472252115374e+02
2.060940630857869564e+02
1.940826694524772620e+02
1.787388725629795374e+02
1.435434618017580704e+02
-1.470885864988534024e+02
-1.822221627087452589e+02
2.390805414006950969e+02
1.849115514734366741e+02
-3.134784982138563691e+02
-2.370832182114183695e+02
1.540933311932372263e+01
-3.471562055333755552e+02
-5.552700235450377022e+02
-4.446259641202987467e+01
3.181223754094464766e+02
6.406585414097175146e+01
-1.165169462268454481e+02
2.359690542976554752e+02
5.838512691075495695e+02
3.916825476083129729e+02
1.459579586136134139e+02
2.341179941531823943e+02
-4.663873842746198761e+01
-7.206734499349056478e+02
-7.357866806055468487e+02
-2.927706156059624050e+02
-2.308985790852253785e+02
-4.866359125340088099e+01
4.069360708587191766e+02
3.213504376788689569e+02
1.260944796996356558e+02
4.168493172207482758e+02
3.202897700985337792e+02
-1.719020876949092269e+02
-6.980965718377696305e+01
7.920646854872641995e+01
-3.373115428783285097e+02
-3.910364673138306557e+02
2.076179503908715063e+01
1.493582960266362036e+01
-1.452981070722178742e+02
4.192173433109812386e+00
9.806875820806673971e+01
8.997713832706244830e+01
8.698565571799437635e+01
-6.312242411870562364e+01
-3.329370218780584878e+01
2.375977166436821335e+02
1.083977494970107358e+02
-1.720035942518033494e+02
5.027338265534457662e+01
1.429096650690847241e+02
-3.156091602364403457e+02
-3.872026427902594037e+02
1.305963074762968574e+02
2.835959226663151185e+02
1.019286939631746947e+01
1.391938651916971637e+01
1.853508152186252289e+02
-3.757401663921488222e+00
-3.225494299012012220e+02
-2.023203777765952509e+02
1.452717333385874952e+02
8.919084845200887912e+01
-1.744794931613535311e+02
-6.386149654640693996e+01
1.149026744583714361e+02
-6.466523721531956426e+01
-1.025558059381069711e+02
2.270178773379810764e+02
2.931477305891522178e+02
6.615829689600079178e+01
9.949137295629689959e+01
1.506394892937103407e+02
-1.868400164054158381e+02
-4.228261128303696523e+02
-2.359054408556158080e+02
-1.124814759239874178e+02
-1.693141634777748266e+02
-7.023652000557554231e+00
2.386147126746472225e+02
1.863764605279045554e+02
1.154128681420852942e+01
-4.460844132537864049e+00
9.780623480698476158e+01
1.951297151236360037e+02
8.629272214243559347e+01
-1.962675348563450086e+02
-1.412384995157950698e+02
1.721106682368297243e+02
3.269558302065879829e+00
-2.870534169272577856e+02
1.051412782205771634e+02
3.232671878701650030e+02
-3.698511667728286056e+02
-6.395338079116980907e+02
1.163080444207879651e+02
4.424500711315156991e+02
1.741432692755117984e+01
1.781405822266363259e+01
3.059946850106405236e+02
9.769253325197588822e+00
-4.371321943861935893e+02
-3.046812357415574866e+02
1.228101772660662050e+02
2.692141983924368560e+02
8.736605671366096715e+01
-2.231337331431605620e+01
1.610673058221977954e+02
2.915225397734410535e+02
9.891119545181550166e+01
-1.479986946226278519e+02
-2.527340478151510297e+02
-3.492750135894715982e+02
-4.864556371231436742e+02
-4.640022363214920915e+02
-1.181056916402202894e+01
6.148025885986583035e+02
6.330430670749948376e+02
1.255049738267657204e+02
1.570710689801169835e+01
1.606668308636401150e+02
-1.220117236248617871e+02
-2.797132666878692362e+02
8.221640446197137919e+01
9.313779510655631100e+01
-3.555233561192028446e+02
-3.995215050277239470e+02
-1.128049713798449147e+02
5.789326127443577263e+01
3.065688026575750200e+02
4.684318325605091218e+02
1.662705561707508082e+02
-1.811659079691008003e+02
-2.421322585510880288e+02
-3.075318680006490126e+02
-2.858067243180915398e+02
7.927811278536175621e+01
3.690353249874604558e+02
2.144813270117819854e+02
-5.554835965504978645e+01
-9.657598525001731105e+01
4.509959610887475101e+00
5.104213957052630235e+01
2.825977801347815799e+01
7.175019211064926594e+01
1.383198149443411182e+02
-4.965734090177456750e+01
-3.983606378319843202e+02
-3.888931144488417431e+02
-3.764443573082373007e+01
7.515733404301165876e+01
-1.250645246906878150e+01
2.110795232764701268e+02
4.720398972045454116e+02
2.206103409950389391e+02
-1.226274199009612289e+02
-5.047081187900902677e+01
-6.755458751700746944e+00
-2.681749179789528057e+02
-3.346577140177593037e+02
-8.730765450659816906e+01
4.663061189258101535e+01
3.485163811867805350e+01
9.988827837643944463e+01
1.528914071206021390e+02
6.025631683660191129e+01
-6.637711487537872301e+01
-8.441174641974738790e+01
-2.359002522906264687e+01
4.246830338693917639e+01
1.558226320046898650e+02
2.248700074987075936e+02
2.118192372168308424e+01
-2.345228655961339541e+02
-1.844258574221728679e+02
-1.257276899168214328e+02
-2.264733981164447414e+02
-1.169182576733159351e+01
3.140697576464723397e+02
8.349712602356660796e+01
-2.278779864052797848e+02
-4.011122097219660532e+01
7.244745622118894346e+01
-4.061238845279768839e+01
1.661244671230456333e+02
3.187823958659556638e+02
5.672549851473350557e+00
-1.376377640398457629e+02
-9.941106681100698950e+00
-1.319825626068996485e+02
-1.334680703820583005e+02
1.943647265302925291e+02
8.708102030601277477e+01
-3.423757590388722747e+02
-2.493905117616848202e+02
4.927259647197182346e+00
-1.302419607870817799e+02
-7.280935678998282867e+01
3.040557196796027029e+02
2.729541618769287652e+02
-3.338188612395369859e+01
9.453517087249842632e+00
1.752587457922494423e+02
1.237673771377128560e+02
5.255735812512351401e+01
4.621497312368110677e+00
-1.276572091662639536e+02
-2.328750274019193682e+02
-2.683637063047855804e+02
-2.149764837575355898e+02
2.614695923760200991e+00
1.441585300374124756e+02
4.309168948684997247e+01
-3.256024762088165936e+00
3.029419731946875416e+01
-7.855426487228085364e+01
-6.284921011367959665e+01
1.816791868598133135e+02
2.219045955972873969e+02
1.052551287592671656e+02
1.258060842423438004e+02
1.570687248736530428e+01
-2.170524819169022805e+02
-1.414346440950278350e+02
2.977881880090317068e+01
-2.016806013231968109e+01
-2.823757427224561667e+01
-2.505107421299828374e+01
-2.268824974615477288e+02
-3.144961687866293687e+02
-1.533762340900321988e+02
1.818836594507076043e+01
2.500371547179773017e+02
4.253398738597406350e+02
2.547274234207209247e+02
5.092117810888666440e+01
1.137633658749319565e+01
-1.767876685900333484e+02
-2.701829508871165331e+02
1.241929471866532353e+01
1.096503395157112521e+02
-9.026138487786516862e+01
-4.126916685960739528e+01
6.401457853368019357e+01
-8.440098285632271313e+01
-8.833888029155491495e+01
5.971528063664788277e+01
2.022636400810601032e+00
-6.422631061374768535e+01
-3.403549865246494477e+01
-1.162385087725896398e+02
-1.184970800848370516e+02
2.826968046146093627e+01
7.778272673909293999e+00
-2.095206817306578984e+01
1.908087759597707702e+02
3.139263351672418594e+02
2.473493590773572350e+02
2.619058948987985787e+02
2.130017304463341361e+02
-8.781459112330793459e+01
-3.911300093614365210e+02
-5.434418326740249086e+02
-5.986994384724777092e+02
-4.847671869229201889e+02
-1.708721575462969327e+02
2.003500361011955135e+02
4.753601075573860726e+02
5.758769073777339145e+02
5.254886991453427072e+02
3.366387882935085827e+02
5.445403162153432675e-01
-2.602803532188251552e+02
-2.518331097918052990e+02
-2.119906287617626788e+02
-2.712463581707255571e+02
-1.598467728653423023e+02
5.904471017507299990e+01
3.609389058777837533e+01
-8.051417303168921080e+01
6.979492841692955807e-01
9.539362241765972783e+01
2.677904217435171574e+01
-4.118702915211230220e+01
-6.704581183892984519e+00
6.818544391446970110e+01
1.142482428809888830e+02
6.981364726149212174e+01
-5.111072263280604489e+00
-5.480745901553713217e+00
-3.771269564746932446e+01
-1.644336625164167174e+02
-1.592233840425407720e+02
4.019161690049810431e+01
1.673082552017860678e+02
1.247536493911473912e+02
4.285644515901536522e+01
-2.571030065043319368e+01
-6.167368667850137598e+01
-8.780360344239842618e+01
-1.732319268002165700e+02
-1.551748379666114204e+02
5.872624177594654071e+01
9.130811530009719945e+01
-1.193585946206770672e+02
-4.642574919114045429e+01
2.251856915025215926e+02
1.269850822607343446e+02
-8.099285370597357314e+01
4.157503831879722611e+01
1.241017521329119688e+02
-1.450375074718916224e+01
-2.994811397919952256e+01
7.399186611744203113e+00
-6.123522835757623284e+01
-6.516595028023921543e+01
-1.145915162847594644e+02
-2.328695978283161310e+02
-3.478724736214473268e+01
2.245514137404749704e+02
3.299146828587102220e+01
-1.357576471271054288e+02
6.609684096801301223e+01
5.561347449606835625e+01
-1.678906812893249310e+02
-2.023796566137972519e+01
2.375808961266818642e+02
1.536647844432708041e+02
9.597120920668858801e+00
2.650554435483789995e+00
-2.550335210045012957e+01
-6.756305737376422371e+01
-1.009681936769460719e+02
-1.372114219063408029e+02
-8.099243791481633536e+01
-1.547490378180137505e+01
-3.913338551746960547e+01
2.298768274308227788e+01
1.412665551146066036e+02
6.912777765711629741e+01
-6.092767411946081779e+01
-3.262873475423221947e+01
-1.080633538144801342e+00
-5.079894207716793630e+01
-2.399280041190108648e+01
5.437426871365558867e+01
2.473745881731082363e+01
-4.566973900986849344e+01
2.421335399896132046e+01
1.544406549781570561e+02
1.017991273710946984e+02
-6.227450967452396213e+01
-8.548341491196077868e+01
-7.674175194147913714e+01
-1.899435746838756245e+02
-1.688698157683209615e+02
5.275757131511576858e+01
1.044746326863634494e+02
-3.593408441418486632e+01
-2.951569830496814006e+01
9.758840347188890973e+01
1.094287536121090625e+02
5.281369777923391240e+01
4.552814273001381196e+01
1.305333938406771921e-02
-1.508373660548317332e+02
-2.055484781938521337e+02
7.706749304958221636e+00
2.206523396782459940e+02
1.508144707179141619e+02
1.609682058632620993e+01
-3.500489460092222060e+01
-2.088159544702033372e+02
-3.363843960185672586e+02
-8.906608987153344970e+01
2.009516409864362743e+02
1.750048472985295120e+02
9.430607550750286805e+01
9.052391129460053776e+01
-2.731199403751194765e+01
-1.452681109123516023e+02
-8.244544330712399471e+01
6.079827697472935277e+00
-8.564490927889945482e+00
-5.403314946320225687e+01
-6.168759161109176858e+01
-1.824823034916404296e+01
3.441768451619012126e+01
6.452991033434832957e+01
9.243115709256420587e+01
7.855746117481079693e+01
3.212312295653050853e+01
5.592506769504700515e+01
5.227838131700815438e+01
-8.226906391571009181e+01
-1.358281817731963770e+02
-7.426814728766271401e+01
-1.335814081324009237e+02
-1.715562114275697922e+02
2.191705908120241020e+00
6.515851886870045462e+01
-1.035855660627602219e+02
-1.327916853000476749e+02
2.047272955208443079e+01
9.299781410181559238e+01
1.318130143625393771e+02
2.488892843216040376e+02
3.059781060889122273e+02
2.082824314146923257e+02
6.699696798788416174e+01
2.086605231769142321e+01
1.181249563109896883e+01
-1.656707806284256037e+02
-4.565762670491409381e+02
-5.810907851212160722e+02
-5.405698702531898334e+02
-4.291362704150158720e+02
-6.744828509927866378e+01
4.716753286624231123e+02
7.047567132630375681e+02
5.530108916636515914e+02
3.797974477178663619e+02
2.203561842031920435e+02
-5.976856254351324793e+01
-2.194857909427722689e+02
-1.052396972392480166e+02
-6.667087560677157398e+01
-2.595734019822342020e+02
-3.139337385565075920e+02
-1.557607522594504417e+02
-1.456331501576582639e+02
-2.047374632263744729e+02
-2.665755262655358493e+01
1.073782479045353142e+02
-2.861808700764365909e+01
-1.333211604572941944e+01
2.446121677355351380e+02
2.970161136969522317e+02
1.906372770246599657e+02
2.273773616819955805e+02
1.949284082086698220e+02
-3.644253633149697436e+01
-1.708668815516798531e+02
-1.641666970775458765e+02
-1.983337492328731173e+02
-2.354868580269603342e+02
-2.151096593102804491e+02
-1.508974435877785254e+02
-2.178665399259832469e+01
7.205252118417739382e+01
5.847594800293422423e+01
9.250193936274565942e+01
1.788357332692505111e+02
1.326494763668796963e+02
2.453216477482244073e+01
1.707301009975739348e+01
2.731734224058563854e+01
-3.146200715926758917e+01
-8.613984985164682939e+01
-5.233037183264897863e+01
6.609660879133062394e+01
1.020932476890534133e+02
-5.914104894896996711e+01
-1.826652129011874877e+02
-1.132945689625161805e+02
-1.015969891145226853e+02
-1.646227869309753089e+02
5.093461640294393966e+00
2.545823126527079125e+02
2.048339495236206460e+02
2.183652857075068709e+01
-9.327472409247743457e+00
-5.689036516420953760e+00
-6.144522820142285013e+01
-9.202731996495489852e+01
-8.634946347214626883e+01
-2.418471297160836286e+01
5.539888406498984352e+01
-7.242186582317759580e+00
-7.741787828299925422e+01
7.218735481673049037e+01
1.579251597897753072e+02
-2.629356894675655809e+01
-8.519705543754956523e+01
6.528947804880029082e+01
7.865559765665872227e+00
-1.658772192568331150e+02
-9.415217805445762167e+01
3.754285139672380467e+01
2.039332277631028134e+01
1.513840741406865043e+01
2.750413149181555639e+01
-2.885328525880708384e+01
-5.875590880597495413e+01
-7.159124149843944451e+01
-7.741211637377197974e+01
7.098726139783555311e+01
2.337993896558078291e+02
1.590110322905631790e+02
2.633935015402675361e+01
-1.312592525693012746e+01
-1.300674679907758104e+02
-2.398174776380207618e+02
-1.403554917509590609e+02
-2.181854455778363544e+01
-2.549157785827283718e+01
2.041009209760203902e+01
1.021172809810242086e+02
6.822148959081280850e+01
3.132518123679474797e+01
1.059817626173461349e+02
1.196128511675447044e+02
-3.968592567922382841e+01
-1.558153018402097985e+02
-8.580784639329316121e+01
-6.705795538307913262e+01
-1.769971917637600427e+02
-7.617552682901622063e+01
1.804474038548582939e+02
1.211146220483213654e+02
-7.326057970208668735e+01
5.505292658999406541e+01
1.742764331937749489e+02
-5.799284359841501590e+00
-3.960710765477163164e+01
1.069750039034518210e+02
-2.740131309683792438e+01
-2.559399170789214963e+02
-2.077787154630091493e+02
-9.858568888011588172e+01
-3.580938256712806833e+01
1.368616291053167231e+02
2.341410447173552996e+02
1.017830067320621907e+02
-4.419996380958392024e+01
-1.177854216888817973e+02
-1.606779721537818659e+02
-7.191298343478001698e+01
9.786942263253794749e+01
1.392137911275800377e+02
5.355941817820529849e+01
-1.884042220392798583e+01
-1.563647903242370418e+01
4.565561895896306055e+01
9.334941564940169201e+01
8.027399401673700652e+01
-7.974432436728296381e+00
-1.807746948932392854e+02
-2.935699321127444819e+02
-1.994501748805663226e+02
-6.352135637380759192e+01
-2.031510384374746181e+01
4.679976631258479358e+01
6.001007259656236670e+01
-6.167254886532968783e+01
4.103354532363741924e+00
2.951862234690947275e+02
3.673430104213624077e+02
2.269846157519498604e+02
1.687544879296917770e+02
3.391391954926727692e+01
-2.120359877496364902e+02
-2.318157299714081034e+02
-1.425855820258407505e+02
-2.690955785197773480e+02
-4.368325802165903724e+02
-4.611476908276046629e+02
-3.736477294592501153e+02
-2.796986264381355625e+01
4.904029810764126864e+02
7.316176041538365098e+02
6.534860944479363525e+02
4.635029587202402013e+02
7.576056597392192771e+01
-3.501773859226332206e+02
-3.990238749610281843e+02
-2.265997995900088426e+02
-1.848431765781030265e+02
-1.458470117187532367e+02
-5.032299904539939917e+01
-7.751764241915714138e+01
-1.016979777655081421e+02
-6.256201551442345909e+00
4.824608564493863661e+00
-4.417148476607543728e+01
3.726660755668639524e+01
1.162140489679284343e+02
1.181606454943463120e+02
2.183210991021435632e+02
2.949742548141881571e+02
1.098920053955965699e+02
-1.262479058106354159e+02
-1.661256871935464403e+02
-1.551939154190244778e+02
-1.759142555447428720e+02
-8.411471055081177894e+01
4.353090074395225173e+01
-5.225389619541471298e+00
-1.190995749700299484e+02
-8.170936166760138519e+01
-5.862187718049973739e-01
-5.873106030232813524e+00
5.383369752247344309e+01
1.883415757076789987e+02
1.543691410555132677e+02
8.443882710755316268e+00
4.370582810232216175e+00
2.031463801115611645e+01
-1.114044462979517078e+02
-1.656396422453603350e+02
-4.768262680919646357e+01
1.941282135410187237e-01
-2.534736079271456433e+01
4.709281296991805732e+01
9.595612170777712890e+01
3.396274573795513341e+00
-6.380816617679739977e+01
-4.120443789686893155e+01
-3.590333001611956121e+01
-9.805524296734450473e+00
7.711217179456829740e+01
8.766427925977552604e+01
-6.236051653413904106e+00
-6.993754601288380002e+01
-9.494242968022329876e+01
-1.298273943634627017e+02
-9.893747599093507006e+01
9.047196433534143267e+00
8.648566231681770944e+01
1.147187732115113619e+02
1.001412961863210001e+02
2.209469687115608139e+01
5.993223896571374887e+00
9.434202695977077724e+01
4.910903863752582765e+01
-1.167258535016008807e+02
-8.947663071119558253e+01
-5.965347706415695228e+00
-1.743016961143371191e+02
-2.646843192310161612e+02
-6.922575671643489414e-01
1.468401927613827525e+02
-3.521553169543405204e+01
-5.578511059240265979e+01
1.790535053977107793e+02
2.037462140609223411e+02
9.363065394850256240e-01
-3.232105411778522353e+01
8.625643788126562583e+01
2.327623918848258100e+01
-1.690521366409213329e+02
-1.311079705574462366e+02
9.441018454939809601e+01
9.628501058379421806e+01
-1.196129831219760007e+02
-1.687241254161597226e+02
-6.755779702588242230e+01
-8.588701519057661926e+01
-9.906544684976091730e+01
8.666557612491368445e+01
2.440679423108513220e+02
1.520245425095133101e+02
-1.069186949876560178e+01
-2.919464097238608247e+01
5.917479781214694867e+00
-5.069661022381738036e+01
-8.422621291074995042e+01
1.308012201754605996e+01
3.291541346884087460e+01
-1.080873675719417975e+02
-1.125659611129563729e+02
3.638411973328872762e+01
7.105467700596150848e-01
-1.132011202060648003e+02
2.098741486455969962e+01
1.657868307781843100e+02
5.190816563144648654e+01
-1.155231877455349476e+01
1.225230706227520585e+02
8.869255926039443239e+01
-1.624823165603966686e+02
-2.216767428013901338e+02
-3.693217118043558855e+01
2.968838005111619793e+01
-7.021944722327545207e+01
-5.365578742562135517e+01
6.358107643459874936e+01
2.448837129244801858e+01
-8.612685894851585999e+01
3.521284310723397759e+00
1.859759699836026812e+02
1.773851945359907916e+02
2.512219472933206177e+01
-5.545273739409689995e+01
-5.481445283858761996e+01
-8.255177467225648513e+01
-1.195974848073438892e+02
-5.212500129084948242e+01
8.844825541019474713e+01
1.054553254589492610e+02
-4.771783520733268347e+01
-1.657151350488128116e+02
-1.362226382402997160e+02
-9.795063586678617185e+01
-1.202709467493268392e+02
-4.257962636495041409e+01
1.665025051195503352e+02
2.320016044820813477e+02
8.123256942505395273e+01
5.289400306198586321e+01
2.011291542346683627e+02
1.784732218914884356e+02
5.588354179815101475e+01
1.170855593302898114e+02
5.634621133357913436e+01
-3.501964501982310480e+02
-6.250306525403059368e+02
-5.613324320301469470e+02
-4.489558186968920950e+02
-1.971629621155013297e+02
3.025582267602596858e+02
6.398893346426586959e+02
6.468788907701856488e+02
5.238650465267706977e+02
2.470322595705620188e+02
-9.234054656065971756e+01
-2.197778834600432560e+02
-2.665222501081577207e+02
-3.416238209999197579e+02
-2.146110494182012758e+02
-6.866367747172263591e+01
-1.909183232704641000e+02
-1.990197967357961488e+02
5.899108461083422839e+01
9.652249924008599180e+01
-1.924117162195847897e+01
1.477899732866725344e+02
2.955726835898910849e+02
1.114104242339921029e+02
4.831242902302872011e+00
1.087735424996315032e+02
3.945831716137679734e+01
-1.451932851204603878e+02
-1.272392707442096054e+02
-4.022668465298505680e+01
-7.462268998255284203e+01
-8.713477464989864529e+01
-1.258920753643417356e+01
7.876800972660568334e+00
-4.772058224334320897e+01
-7.399389693504906518e+01
-3.937151557135968005e+01
4.778005271923651875e+00
2.861434347254496657e+01
7.566025657444154717e+01
1.519391811532609040e+02
1.410282068190365408e+02
3.082021841643433646e+01
-8.595426302725973855e+00
4.289562471888753059e+00
-1.144204787024083458e+02
-2.368698527132429490e+02
-1.481694091185426601e+02
-4.713636557900603918e+01
-9.372452741111554531e+01
-2.378322743240295978e+01
2.051729711940669745e+02
2.453868997471129489e+02
9.926605572408654155e+01
6.481210023900800365e+01
5.632192393277353659e+01
-1.270418926085502278e+02
-2.639838115669164154e+02
-1.547805846931874214e+02
-3.112162677585898152e+01
-3.737806591231581876e+01
2.833585684699701090e+01
1.654235525667071158e+02
1.212444413239230414e+02
-1.394986171630498184e+01
8.679968845041575065e+00
2.143465669925652506e+01
-1.229669252048952046e+02
-1.409803372644234400e+02
1.284855361522620854e+01
1.923723313439116112e+01
-4.632602799167327845e+01
7.155125239821430227e+01
1.553389859158335469e+02
1.515526196528479019e+01
-9.777410537595906703e+01
-6.985283972711903289e+01
-6.098791525072424236e+01
-6.983416457417764889e+01
-3.283231527626679025e+00
9.550749044025766921e+01
1.238944101115084351e+02
2.048127568531793585e+01
-1.159222418891200448e+02
-1.085182471175744183e+02
-3.665732375051395309e+01
-5.171213622134776244e+01
-6.063321674834085684e-01
1.570383068195963858e+02
1.151940905543743980e+02
-9.549596235362658092e+01
-9.782577269190541358e+01
2.241653666317630922e+01
-3.344409592182879720e+01
-5.441956822623400569e+01
1.219868458786544636e+02
1.147887865676771781e+02
-1.371213008799686861e+02
-1.520487261288063223e+02
5.621987597986667851e+01
4.876210416598085118e+01
-4.803215664731879997e+01
6.230068420485522296e+01
9.239565421404851975e+01
-1.372789018800233123e+02
-2.346431941721018859e+02
-4.609342308266965205e+01
1.062894119502014405e+02
9.264614924906324234e+01
7.729328690205024088e+01
9.895172979629354870e+01
1.868491583633394981e+01
-1.416199930861275789e+02
-1.148347288992473665e+02
9.666442036675007898e+01
1.154317756223391598e+02
-3.540755763467991102e+01
-7.865205701139398542e+00
3.532224428803138139e+00
-2.013443825957936610e+02
-1.847707370755591398e+02
6.949384314493917714e+01
3.625352930794250028e+01
-8.766220146861164153e+01
7.512980402747444941e+01
1.249975682821273750e+02
-6.139842767269041701e+01
-3.653919403359496698e+01
9.116205897799892455e+01
2.375930243517085216e+01
-1.329637314540049076e+01
5.616760001306904826e+01
7.201838630669566044e+01
9.749486058613146611e+01
5.975062593853800763e+01
-1.294249239250832488e+02
-1.810606394552945062e+02
-9.206394231406939355e+01
-1.703843311354642651e+02
-2.094903098784045596e+02
-1.285712345800741119e+00
7.442005362112823263e+01
-7.013399989032201631e+01
-4.620509256536637821e+01
1.369573166975754930e+02
1.901556592319730044e+02
1.438731168810321890e+02
1.720994716358009953e+02
2.522006660568052325e+02
2.210272959197977798e+02
6.849576196656747129e+01
-3.201158520906777483e+01
-1.447380617696121305e+02
-4.588006220842978564e+02
-7.201395705087038550e+02
-6.306724292092762880e+02
-3.565906764406483376e+02
1.391414774797848963e+01
5.130048346021926591e+02
7.917294406923360839e+02
6.617490833110047106e+02
4.126535889944876203e+02
1.206626497161474987e+02
-2.218973129827005835e+02
-3.155808471519916338e+02
-1.982794244540284296e+02
-2.233884942942299574e+02
-2.809180127221880525e+02
-1.767464297977434455e+02
-1.037767841090693395e+02
-8.417445697274237659e+01
4.593852713152296730e+01
1.560980289990859546e+02
1.083414699328172901e+02
2.020852406814039171e+01
-7.339891829429466164e+00
4.207889964570041741e+01
1.304535626878517292e+02
1.522175292981165455e+02
1.079298777789795167e+02
5.333814264341584277e+01
-6.623308652831178733e+01
-1.994376119219216434e+02
-1.797073709779372166e+02
-7.490186510639212258e+01
-6.190113596959557185e+01
-8.266716315527453673e+01
-1.339976755734160641e+01
7.733402575463574635e+01
8.555015518055684254e+01
7.862012336942824220e+01
1.184593920745624587e+02
5.911188910990570378e+01
-1.297477514926010258e+02
-1.703639221185832753e+02
-3.211895279695515626e+01
-1.466588410277301158e+01
-5.489662718147440046e+01
6.579847311108186148e+01
1.091696275938559779e+02
-3.568515600190630721e+01
-3.419884127378773542e+01
8.811928421254712873e+01
3.175382761984488411e+01
-6.259810475934664709e+01
-2.802455524352714633e+01
-2.013043130831869121e+01
-2.130299192567964894e+01
6.029261124182129095e+01
7.551888298288358214e+01
-4.359372963236429754e-01
-6.470179528974176719e+01
-1.656977365809462697e+02
-2.221260045211254237e+02
-8.828115750910434656e+01
4.801165023002538135e+01
4.904632133496025403e+01
7.814043922298127143e+01
1.171472020788595501e+02
5.798539372577283046e+01
5.712839461733734936e+01
1.412361374539382552e+02
1.210850373341660173e+02
4.206519439583134812e+01
-1.457732147137776835e+01
-1.553102547801768480e+02
-2.757021876723998162e+02
-1.960248720334026586e+02
-1.002944191975520454e+02
-1.081100956981621692e+02
-9.065457543791278994e+00
1.425899390079510738e+02
7.796572118858192368e+01
-3.043653355072355282e+01
8.343025110014819745e+01
1.794257541663438076e+02
6.787106464519671079e+01
3.681662865204499724e+01
1.467138129384225920e+02
4.398423709090484124e+01
-2.159696706538517788e+02
-2.184037959219159575e+02
-4.979542859030080137e+01
-4.589059991680037598e+01
-5.629298643477570607e+01
8.233702253004953775e+01
6.854527111093469216e+01
-1.516179351683381356e+02
-1.796528175219143009e+02
8.194620775618460584e+00
9.514454435563752099e+01
1.143979137309955405e+02
1.736030210879561082e+02
9.140004884458163303e+01
-9.699231118619945846e+01
-1.037728672465389934e+02
1.428529241746896083e+01
3.253541442613898482e+01
1.457950527138728880e+01
1.859580629636684179e+01
-7.378262485264916393e+01
-1.929319053765044316e+02
-1.320384729032759026e+02
5.675285949801423158e+01
1.358516731136806470e+02
5.142493594776077970e+01
-2.085684546663213368e+01
9.131702595316253834e+00
1.254178933886448988e+01
-3.534983172532927398e+01
2.196500644425155002e+01
9.465051327104384882e+01
-4.991891459292828159e+01
-2.371970216569416436e+02
-1.652291678320465280e+02
3.512002745867859232e+01
1.137744044237420411e+02
9.045606351823980162e+01
6.378170754889374905e+01
5.951284267681730000e+01
2.501274622267587233e+01
-7.604538228888370099e+01
-5.574301570761159041e+01
1.479401318315746607e+02
1.289741753500570951e+02
-1.782212742235870735e+02
-1.998638080065764200e+02
5.885146944765216404e+01
4.904153266854223148e-01
-1.980330703215994390e+02
-4.091574007305470673e+01
8.943805345781906624e+01
-1.414564082721578302e+02
-2.126914579715386822e+02
6.774540419825335391e+01
1.984955721820565202e+02
9.612104939633168499e+01
9.389682158306935378e+01
1.652299183711601529e+02
1.515894822883049642e+02
1.368556282455634800e+02
1.437735747939100008e+02
6.527184623932565444e+01
-8.386166625883564052e+01
-2.547020177798392808e+02
-4.667419786038479401e+02
-6.154458175670205264e+02
-5.108287723890155689e+02
-2.003072816436938410e+02
9.653978387382142046e+01
3.689309805291302382e+02
6.954480980908027732e+02
8.373979214824107657e+02
5.307737554116467891e+02
3.468512210659515205e+01
-2.398367006223353144e+02
-3.582238308873952519e+02
-4.917682327789062242e+02
-4.206189471906644712e+02
-6.429809464543177455e+01
1.267680445133069185e+02
-6.999410760805081111e+01
-2.249669599381776379e+02
-8.824314972649965227e+01
2.197753965985165792e+01
1.512607481183280100e+01
1.792263362980141608e+02
3.792901662731100600e+02
2.396037215007782493e+02
-1.901380656558927029e+01
-2.799450528352564760e+01
-2.875268403805375073e+00
-1.112944329329246642e+02
-7.346873810564869700e+01
5.801356493150024818e+01
-5.762556641831724846e+01
-2.154195190305833307e+02
-1.034906848738628753e+02
2.414676755312505918e-01
-7.188878963939859545e+01
-9.980125885854334911e+00
1.557284249692367268e+02
7.854240647358480487e+01
-1.072525559276809020e+02
-8.145493370767414376e+01
3.166005792224044058e+01
3.619669336881995036e+01
3.508290446079550406e+01
1.018184413714750320e+02
1.178438252712216041e+02
1.994642888634273348e+01
-9.009403122986513779e+01
-1.016643385055773763e+02
-4.780568535266323238e+01
-2.524226514426425894e+01
-4.095926079472474157e+01
-6.550030756638233242e+01
-7.909102096574261509e+01
-2.576107994583467331e+01
6.378635582578585428e+01
9.071471400283660103e+01
1.166016772969291821e+02
1.593747652475210828e+02
1.470884072004194998e+01
-2.421062991649753542e+02
-2.384945323631314409e+02
-5.179375102661072816e+01
-2.130247369348449737e+01
-6.369414700523558182e+00
1.665662629808359156e+02
1.900236892673855209e+02
-2.678070478148064382e+01
-1.045295777821616809e+02
2.797778273032415086e+01
7.593061171194193548e+01
1.607328203888598495e+01
1.003493482766415212e+01
-1.120723259995090260e+00
-1.145906321611957850e+02
-2.120388659063100363e+02
-1.491764712596711888e+02
5.693914512483102541e+00
7.907170004249020678e+01
6.515694257129798928e+01
8.238673275015585773e+01
9.055899973240123302e+01
-4.084236870882627990e+00
-6.585714485533557649e+01
1.402963561485291422e+01
6.024281403478046570e+01
-4.488282026909362621e+00
-2.620808718764230605e+01
-1.986921769610858490e+01
-7.235876257367964115e+01
-7.008317151583727878e+01
-2.448292570077295238e+01
-6.567394912393181983e+01
-4.323305528878080395e+01
8.878350749451752222e+01
5.033005416194779968e+01
-4.412921965072687414e+01
1.055187785174409640e+02
1.510335915501853492e+02
-1.298326573881481352e+02
-1.899137812037561730e+02
5.575195206732621500e+01
3.775331713022919189e+01
-1.134229575663876801e+02
5.021471857147157891e+01
1.758083602003206067e+02
-4.240162833557532451e+01
-1.846492983544593187e+02
-8.074529474195760770e+01
-2.176938111547782029e+01
-1.739981724545801356e+01
5.694558027749597784e+01
9.432461241237837157e+01
5.776742253929263882e+01
3.789050985546424499e+01
9.724155404908696454e-02
-7.123071011783606821e+01
-3.978687377636162381e+01
8.209722498147846181e+01
6.660312149030420414e+01
-7.400472239716665968e+01
-6.666549614508522836e+01
2.118409625215729619e+00
-1.674928434473298182e+02
-3.119050742488374794e+02
-6.980719273273111014e+01
1.862851019309530329e+02
1.266631759770512673e+02
9.541267953229068155e+01
1.880787011815336314e+02
7.347363704902048198e+01
-1.341808511020001617e+02
-1.132570815677411105e+02
4.857223206357578249e+01
1.672040412018590416e+02
1.542836003146068151e+02
-2.139086709318476309e+01
-1.521130490145078227e+02
-1.412551538629142271e+02
-2.104081001341016020e+02
-2.588564563484724772e+02
-4.022576793385576366e+01
9.526165642443872628e+01
-1.043396747915888199e+02
-1.794621502858234692e+02
3.699298460102311736e+01
1.482262343390416675e+02
1.594177363127163574e+02
3.223902414535670005e+02
4.337368586525647061e+02
2.970996724704621101e+02
1.311187948602901372e+02
4.070288905711325356e+01
-1.507137496625567792e+02
-4.467713106391755105e+02
-6.458390230116667681e+02
-6.790937841012479339e+02
-5.705957710728910115e+02
-2.484088504436662390e+02
2.400370386142599841e+02
6.008466935979984100e+02
6.864990322635528628e+02
6.118369206914355800e+02
4.077358252609254805e+02
9.785447911143431554e+01
-1.173388525365884334e+02
-1.921196652931205620e+02
-2.684242053862789703e+02
-3.235188947476295880e+02
-2.990441146853852388e+02
-2.332634269905455255e+02
-8.009573783831004334e+01
8.393072368744870460e+01
4.665522369421869087e+01
-4.593674349807895396e+01
8.181423703257971525e+00
-1.804452355911909578e+01
-1.149234531393564822e+02
9.536606901560854510e+01
3.815809163677989204e+02
2.411889967587833326e+02
-2.471167185542027056e+01
8.157701374948889139e+00
2.948472316101632629e+01
-1.477509356587416391e+02
-1.342962885930991490e+02
9.715106238708293063e+01
9.099797186887671785e+01
-1.556757395509308424e+02
-2.137029961878264714e+02
-5.295984231798325936e+01
1.167659252160580330e+01
-4.604976812513301354e+01
-6.160248816092435931e+01
-6.115368055522705504e+01
-9.590372502052082382e+01
-9.275246121498126683e+01
-4.724350611001575828e+00
1.647079288539241020e+02
2.964991336571626448e+02
1.946276059530521252e+02
7.558750604484263391e-01
1.872083540628631582e+01
9.668007998987867779e+01
3.610870441129319630e+01
2.691991702207089432e+01
1.493906042620134755e+01
-1.949349930924536807e+02
-2.964331197107201206e+02
-1.761919287390162197e+02
-1.753217027672975235e+02
-1.389770327463996864e+02
8.585782139910500632e+01
-3.252752937606385331e+01
-3.667950246715342359e+02
-1.262761992922258685e+02
3.451234844319841955e+02
3.517753281171808339e+02
3.685724937242337660e+02
6.111228570036678320e+02
3.810516213114664197e+02
-1.786694784209550164e+02
-3.266661940349693509e+02
-2.671091752073486987e+02
-3.650392086672438268e+02
-3.219439585758239559e+02
-1.320068848664515144e+02
-1.013874206099520592e+02
-7.064466982554495189e+01
6.086562039935724044e+01
5.930344031877115007e+00
-1.220077917527881084e+02
3.022407759859720144e+01
2.246395397571270962e+02
1.697587003270063803e+02
1.780161410815346983e+02
3.381823647324812896e+02
1.886353257715529139e+02
-1.840934542627369126e+02
-1.800102047320921486e+02
6.534606351335220609e+01
2.216763122582840140e+01
-1.251093170388999454e+02
-6.715898975752037359e+01
-7.944177521662663821e+01
-2.589975646597264927e+02
-2.315733185598582793e+02
2.781318239224325595e+01
1.201274078496842037e+02
-2.965612010662622922e+01
-1.184255188488833284e+02
-5.126257495934900987e+01
1.186509825017460784e+01
4.895916345376225109e+01
1.040128228070456657e+02
1.058095661103547513e+02
9.636838310328275270e+01
1.540120597403072793e+02
1.796585268144260397e+02
1.954184321066067014e+02
2.219974599034426035e+02
-2.137057510427288065e+01
-4.045835577579010760e+02
-3.661906744206623898e+02
-5.665762061500952740e+01
5.579015610001030723e+01
7.555367055392405007e+01
-3.073357779908606702e+01
-3.693512940253087891e+02
-4.526758785666908693e+02
-2.125780923392422892e+02
-5.411782348822043076e+01
2.450317752695926572e+02
5.282439020432709640e+02
1.321021201177043736e+02
-2.743973764821444092e+02
8.260615865277198111e+01
4.143325185958551060e+02
3.507856286482095811e+02
3.743257086393573445e+02
2.586131727124119379e+02
-8.510725347009136854e+00
-3.297009548631635312e+01
-1.119305654012371036e+02
-1.178415870759124005e+02
3.553519362765211298e+01
-7.405631940342460666e+02
-1.718106186082789236e+03
-9.790174517352910470e+02
-6.590534232094015010e+01
-4.360217759023355484e+02
3.163344116480521961e+02
1.957238091080443837e+03
1.133369468489737073e+03
-3.809339995883071879e+02
8.235664500131873638e+02
1.882772921387599354e+03
1.170692794164906445e+02
-1.073167215365917400e+03
5.271168669849933508e+01
9.858444984869606742e+01
-1.672225332795859003e+03
-1.683167228536815628e+03
3.332119670932177087e+02
6.782025804587443645e+02
-8.588515273295128054e+02
-1.023899304033950898e+03
2.127634828442846811e+02
4.437127648060314300e+02
-2.852712484758204141e+02
-4.969623303853919083e+02
3.733582220748015175e+02
1.622558544109501099e+03
1.469939934313150388e+03
3.321005798306554198e+02
8.336471155854596873e+02
1.702902143834999151e+03
8.266193741134929951e+01
-1.602777724412910857e+03
-9.255333818813431890e+02
-1.588142940477595744e+02
-7.749704558321415107e+02
-2.500981110116827494e+03
-4.128488235749536216e+03
-2.186836891084444233e+03
1.764641659261366385e+03
1.991094330397137583e+03
2.129982963953913440e+03
6.265030006940674866e+03
5.287249814276158759e+03
-2.862541950591405566e+03
-5.187927569711951946e+03
-8.996818735778838345e+02
-6.032645059223001454e+02
-1.849612143969839281e+03
9.219180195595467922e+02
1.726823607070570915e+03
-1.858570412455242604e+03
-3.330776474356122435e+03
-6.912542964198113395e+02
2.304980661093899016e+03
3.656325940036822885e+03
4.218806765845438349e+03
3.361433201119265050e+03
-1.489359793144089963e+03
-6.021162204555605058e+03
-2.971659106233170860e+03
6.426498020977855958e+02
-3.233094597734644140e+03
-3.499134872113026177e+03
3.627888008122836254e+03
2.210862019191051331e+03
-4.727794803678617427e+03
1.455519438740382611e+03
1.134185148445617779e+04
6.123858686753998882e+03
-3.305951182287754818e+03
-2.159138681467684819e+03
2.891290461171136599e+02
-4.639287065287305268e+03
-6.792237996876916441e+03
9.299599006884506025e+02
5.584022639467093541e+03
-2.702221650922264416e+03
-8.915078078500906486e+03
-2.310368649787551931e+03
2.336097991033749167e+03
1.373838114474716576e+03
7.870916624642211900e+03
1.154845982587273829e+04
6.299323984184911751e+02
-5.296710360578459586e+03
-7.710604770871034361e+02
-4.191218175852181957e+03
-5.888611675683697285e+03
6.562405080060731052e+03
8.428981412633071159e+03
-6.418249736296021183e+03
-9.038053468076883291e+03
-6.145917331271125477e+02
-3.006693639333314877e+03
-6.211823921961030464e+03
3.207305446680497880e+03
1.043282458168990706e+04
5.386316878356439702e+03
-4.157299444741530579e+02
1.405001929414414917e+03
3.655272616696000568e+03
-1.065025462108352713e+03
-5.291764908685683622e+03
-1.559078647450475046e+03
4.193881007077098388e+02
-3.789146321807576442e+03
-2.506558657701461925e+03
1.975732449314592031e+03
-1.623854750120955941e+03
-3.901225638318508118e+03
2.868330040233972795e+03
5.743768193431998043e+03
2.064066062540078747e+03
2.365586467856315267e+03
3.549271927328439688e+03
-1.509824477384448073e+03
-7.241785229220988185e+03
-5.718797009768725729e+03
2.284708239983329349e+03
5.755536891976462357e+03
-1.499704050670177594e+03
-5.027631095369541981e+03
2.648772240570700887e+03
2.733402074901887772e+03
-6.080044044360071894e+03
-2.876065790790021879e+02
1.190066320354921481e+04
3.758585595776901300e+03
-1.001020243548397229e+04
-4.017462104450849893e+03
5.820297490593774455e+03
1.234722301181192051e+03
-2.405728134359054820e+03
3.495821961095361985e+03
1.703167065021213375e+03
-9.814551521231445804e+03
-1.083238119272957920e+04
-3.389386284150754705e+02
4.745544002633387208e+03
6.171891066574946308e+03
1.127365911279730608e+04
8.660149816529890813e+03
-2.438585576548304743e+03
-4.682189211037595669e+03
-1.968449055249572893e+03
-7.436208962155430527e+03
-9.020066975920686673e+03
1.830079578844000423e+02
3.749048826797515176e+03
-7.420941482757717722e+01
1.413773588359814539e+03
5.301945545111154388e+03
3.865011157927952354e+03
-1.521279762997101670e+03
-5.890279933595320472e+03
-2.044274298513310214e+03
5.815203249355579828e+03
2.902631557847119893e+03
-3.185076672695121488e+03
2.892035621381253804e+03
5.456989630932762338e+03
-5.862932623951934147e+03
-8.274808531570721243e+03
2.094533278545198755e+03
2.628576046089738611e+03
-4.757517526564239233e+03
-4.013860870350110872e+03
9.280586337536482233e+02
2.726816859257665783e+03
3.282909900762301277e+03
3.857466098278247500e+03
5.100805716570389450e+03
4.451849134583607338e+03
-1.846076628497414731e+03
-6.531835254790045838e+03
-3.328804993201736579e+03
-1.500337910168781548e+02
-1.577604349598453837e+03
-2.787511719300316145e+03
-2.212711088990548888e+03
-4.946730682990797163e+02
9.003303505190364149e+02
5.104906401010304080e+02
3.456016724736678498e+03
8.349174119211140351e+03
3.903331534649095374e+03
-3.760659446123835551e+03
-1.699746638700710946e+03
-5.286351006002396389e+02
-6.291879631446330677e+03
-4.028487113514418070e+03
3.207312167231494186e+03
1.369573156975623988e+03
-2.971994827203605496e+02
4.064792995013406198e+03
2.566749031734984783e+03
-2.029896849959238580e+03
-1.230632930888561532e+03
-1.948459383726174792e+03
-4.069285168693107607e+03
-6.001616516434452251e+02
1.698126005353879236e+03
1.958493591548669599e+02
2.730045987471195531e+03
4.791563787410290388e+03
4.285303787864765468e+02
-2.023318406782961119e+03
-1.626106132101125183e+02
-1.161721283683651336e+03
-3.296578558821442584e+03
-9.674968784561691564e+02
3.458392808293376675e+03
4.210190548716643207e+03
-3.270828591766653659e+01
-3.413082870621625716e+03
-2.420175457997967897e+03
-3.179856457804808088e+03
-5.338110648191767723e+03
1.852233548738415720e+02
7.489959368094266210e+03
4.964675059605178831e+03
2.696146304760500243e+02
1.181161206116311632e+03
2.881971091779380458e+02
-2.676216010940147044e+03
-1.155641696921378525e+03
7.024023903188862050e+02
-5.476035602151059720e+02
-1.011513779263289734e+03
-1.202291397594381351e+03
-1.523321452153691553e+03
7.593761980903187805e+02
2.173670487412593502e+03
3.325812324498198222e+02
-8.209810395429165055e+02
-1.909511856525863323e+03
-3.262061438852333595e+03
-3.559706475524187681e+02
2.813897387484455066e+03
1.999599809844567972e+03
4.517703821160593179e+03
7.593728196376423512e+03
8.928637732646772918e+01
-7.708117365548047928e+03
-4.103917586561783537e+03
-2.641680167629132029e+03
-7.507046589412994763e+03
-2.131611002439341519e+03
9.142887822363485611e+03
7.978885665940058061e+03
6.251238571905435037e+02
-1.768887939722711167e+02
-2.511258261797385103e+02
-3.898831223793843947e+03
-4.818316683978113360e+03
-1.119434939403422504e+03
3.487373522085965760e+03
4.509049816098950032e+03
2.907570459187612073e+02
-2.533480975090518768e+03
-1.054779082995670194e+02
-1.860994068280930094e+02
-4.076991169034105042e+03
-2.443474492622643538e+03
3.651089020247563894e+03
5.086100931733058133e+03
2.168986986143767353e+03
1.336810622181503163e+02
-3.376304104843123923e+02
-1.924600518048370759e+03
-5.829278240364125850e+03
-5.939177836299511910e+03
1.853531272615030730e+03
6.754101542463777150e+03
2.538333274718434495e+03
6.817936873912171905e+02
3.025595311911616136e+03
-5.502940985927732527e+02
-4.734726413499353839e+03
-2.266847054789119284e+03
-1.103799476275597726e+03
-1.816614324099988380e+03
1.149128501894730562e+03
1.593404111375693219e+03
3.012785103505316329e+02
4.836110189980206997e+03
4.644184556175851867e+03
-5.022651263883896718e+03
-6.326612944588991923e+03
8.970464354059597554e+02
2.164679314198572797e+02
-1.510725508936732467e+03
5.359717930508229983e+03
7.195701812517620056e+03
-1.281973154108708286e+03
-6.567946468053343779e+03
-4.559172313636137005e+03
-1.921356577459739128e+03
-8.593078440147047559e+02
9.071177244343970187e+02
3.964324947076507669e+03
3.654413839072548853e+03
-1.117677886422088250e+03
-1.882040343881796844e+03
1.554971822083677807e+03
8.617582418231953625e+02
9.386517602537078346e+02
4.933439653984050892e+03
1.048966510052178137e+03
-6.628129127205777877e+03
-4.186663533394432307e+03
-1.470373008804706387e+03
-4.717214580781804216e+03
5.179096756286575101e+02
8.901571833073876405e+03
4.432135512338262743e+03
-2.687581032677766416e+03
-3.376910821813866733e+03
-4.928446479271512544e+03
-3.486895567538495470e+03
3.784438136911825950e+03
6.537427272780498242e+03
6.267786543753171827e+03
6.152496769657267578e+03
-2.203268169609303186e+03
-1.014507863703842850e+04
-4.770858499959746950e+03
9.635640608291318188e+01
-2.154401345412277351e+03
1.249820766136791690e+03
4.206826232230312598e+03
-1.590055288570064022e+03
-2.374702660324006956e+03
1.992902999889566672e+03
-2.044905607997149275e+02
1.773564897752852687e+02
5.480435506758661177e+03
8.589507073676095388e+02
-5.165144582367775001e+03
9.959905382512678216e+02
3.624767307065418208e+03
-3.077918606937124423e+03
-1.546421299462430397e+03
4.613620600202637434e+03
8.989758700237235871e+02
-3.750710955625713723e+03
-1.948021445576082442e+03
-2.375034287996707008e+03
-3.737860364212280274e+03
-3.994993963055247264e+02
1.871568989875888519e+03
2.941438567469643203e+03
6.843538810352772089e+03
5.107299793027044871e+03
-3.396711144577883715e+03
-4.472377109055605615e+03
8.747950200760661232e+01
-2.347978426732259322e+03
-4.457284021681502963e+03
1.612815587092543865e+03
3.949721619310897495e+03
-4.274431483312217779e+02
-4.424485648637387385e+02
1.766912122751691186e+03
-1.098861938669001432e+02
-1.166862478348260538e+03
-1.107372167272995966e+03
-2.565274534691638110e+03
4.958754614675838184e+02
5.865844973711325110e+03
3.345917102866297228e+03
-1.988544954212686662e+03
-1.877600224502139554e+03
-2.301420320787985020e+03
-4.911861451312762256e+03
-2.152294826601143996e+03
4.314340959480287893e+03
6.326553339130912718e+03
1.540115402486503172e+03
-5.246330279068551135e+03
-5.613699714406313433e+03
1.222720221214694902e+02
2.189182402269265822e+03
2.001653475641780688e+03
6.534052412203601307e+03
6.953280470841919850e+03
-2.238667627280052329e+03
-7.332750374082764210e+03
-3.489650559571955000e+03
-1.487017704205849213e+03
-2.782414268466301564e+03
-1.973233747243381913e+03
-6.967856348367143937e+01
1.722925648550925644e+03
3.419581046143165167e+03
3.635489084176532742e+03
3.508260168605682338e+03
2.616061174499267054e+03
-1.597899265852004646e+03
-5.213727028588571557e+03
-4.152110818774415748e+03
-1.565018044073314968e+03
1.033177858603116874e+03
3.639878633052756413e+03
2.816472677684513656e+03
2.859143678757297380e+02
6.596802136502805070e+02
4.767573542013199130e+02
-2.711815802421971057e+03
-3.657596476327795244e+03
-1.315177462437355643e+03
-5.586177269800491274e+01
-7.385155477120715659e+02
-9.297921415236132816e+02
1.738917921693306653e+03
4.840373861352218228e+03
1.939652502238735906e+03
-2.851222102100134634e+03
8.185539246763361234e+02
5.505355295091947482e+03
-5.916253498272064917e+02
-5.739343685677871690e+03
3.164623393376931517e+02
2.294393078068877458e+03
-5.635503107402945716e+03
-5.693680779793172405e+03
3.224653531451614072e+03
3.596011978946656654e+03
-1.673709899129698897e+03
1.301793884086616117e+03
5.912834171536201211e+03
2.659342536338378977e+03
-1.403505620927763403e+03
-2.402610764949533404e+03
-4.530411999606987592e+03
-4.868691590519229976e+03
-1.522453250510910038e+03
8.473412483804745534e+02
4.026937336038864487e+03
8.313599638246869290e+03
4.905520464967039516e+03
-2.925360902657806491e+03
-3.230272784104890889e+03
-1.168253914523214007e+03
-4.130117993099724117e+03
-3.891344770644624532e+03
6.879617635661559234e+02
3.444068831295084010e+02
-2.136482421577133664e+03
-1.128548857369587743e+01
3.694524929018409694e+03
5.701364177725913578e+03
4.547955744433465952e+03
-1.386969864087710107e+02
-2.802298390268943876e+03
-2.760880483743246714e+03
-5.153448678450892658e+03
-4.201577163460600786e+03
3.743734194071713318e+03
5.609700516538844568e+03
-1.166225321826441586e+03
-2.427556226073943890e+03
1.527174460039599126e+03
5.283480804432703053e+02
-1.518945570977580928e+03
1.150865428244078657e+03
2.870424923064798804e+03
-7.373738139033554262e+02
-4.733010995651428857e+03
-2.372310838415684884e+03
3.749591625881292202e+03
3.985974395087855555e+03
-6.248606251148871706e+02
-1.183978323564869925e+03
-6.443772851562691812e+02
-3.581232411304117704e+03
-2.627062412098452114e+03
2.971319874868071111e+03
4.329766919028216762e+03
1.733192901606650139e+03
-5.701953787673094212e+02
-2.369899628915227822e+03
-1.066338339355610287e+03
1.929992923768615128e+03
1.073349993463484225e+03
-6.431379441840856543e+02
-1.067196397764745598e+03
-3.896221299378162712e+03
-3.862064304124382488e+03
1.933793154298897434e+03
3.593877357277541250e+03
1.798935198834578841e+03
3.574989210967288273e+03
1.286395987179035046e+03
-4.904038616175623247e+03
-1.907289514157491567e+03
3.605231246589319198e+03
-1.489510534031134625e+02
-2.854593926554262907e+03
4.703976797686318605e+02
3.210049751970014853e+00
-1.901871017830846085e+03
6.881793839188273978e+02
2.038791998482905456e+03
5.157204575971875329e+02
-3.921888240566624404e+02
-1.287556691298760143e+03
-5.054509298374238710e+02
2.007922279623957365e+03
1.208328185499448409e+03
-1.085692060188495361e+03
-1.415975392719563843e+03
-2.388553427878530783e+03
-1.282638941061102287e+03
3.492468503611115921e+03
3.418965751240674308e+03
-3.619449415636328808e+02
6.564916053534269622e+02
5.270480500080695947e+02
-4.075099452850316084e+03
-2.512957645080322891e+03
2.965076202129829198e+03
1.084619690150494534e+03
-3.121982960742671821e+03
-2.136481857025784393e+03
3.480262530900204183e+02
2.420699269577104133e+03
3.644068717584244496e+03
1.647994556305626475e+03
-2.399507374182216211e+02
-6.553952482558831889e+02
-3.684663584782732869e+03
-4.606960027633226673e+03
1.571171292061850181e+03
5.247625128545107145e+03
9.997659856402184460e+02
-2.056181682141872898e+03
-5.538149179118845495e+02
5.064280390202020499e+01
-3.140622026701395271e+02
6.260532823342338133e+02
1.104512779416716967e+03
-9.921320195501928652e+01
-2.054708955207755935e+03
-2.856200405287579088e+03
-4.245020385533819649e+02
2.931677073243478844e+03
2.452891683385193573e+03
-4.109594754000873991e+02
-1.171438109537061337e+03
-5.962911528701969246e+02
-9.545117327357711901e+00
2.260795595194834732e+03
3.627192924096363186e+03
3.067826365116538341e+02
-3.343408037175513073e+03
-3.498522159717414979e+03
-3.772633200268031032e+03
-2.862810826408031971e+03
3.147577854785820819e+03
6.415874443004020577e+03
1.645825314717799984e+03
-1.428794653191753923e+03
-4.105534083203005835e+00
-1.601032289370040417e+03
-2.592856857298351770e+03
1.269101471979168082e+03
1.810011464151092241e+03
-7.448128511043319122e+02
1.097900922758473143e+03
1.605166970116372113e+03
-2.044269024717257707e+03
-5.101441283781203424e+02
2.525021364280645230e+03
-2.244959862058024100e+03
-5.233912676256671148e+03
6.784357863067928065e+02
3.886163258447416410e+03
2.790432180364450687e+02
-7.909842097654347981e+02
1.550608305599219193e+03
6.467231679745433439e+02
-2.855255980510190511e+03
-2.561222958182136153e+03
2.298988208687057522e+03
4.361746150791555920e+03
7.972016635138755873e+02
-1.129550024520521220e+03
6.527226075235475946e+02
1.858902043618094879e+01
-2.309440657026046210e+03
-2.257498708361966692e+03
-1.828940728928338331e+03
-1.245670816857825685e+03
6.230848550856157999e+02
6.020216237569674149e+02
3.333228400277131982e+02
3.307134579649161878e+03
3.561272236271386191e+03
-1.023131942509815985e+03
-2.136676369831904594e+03
6.056042619616627007e+02
5.476643602279922334e+02
-1.232195727871872123e+03
-1.261732018034796283e+03
2.326363865347371700e+02
1.995225416349198213e+03
8.005173955707422238e+02
-2.787158013693332123e+03
-2.807643430145510138e+03
-9.964148546867927507e+02
-2.262067073391050599e+03
-1.252051735530729502e+03
4.713188271667574554e+03
7.766451942693250203e+03
4.775155473370293294e+03
-8.124956664755757174e+02
-5.394232260849578779e+03
-4.675649047087214058e+03
-1.390033413075656654e+03
-1.754249737917670473e+03
-5.124318583274923640e+02
4.107140943612033880e+03
