-6.871396621582172520e+04
-1.142774301772603794e+05
-7.319936140711249027e+04
-7.308728021600570355e+04
-6.152429230583660683e+04
1.109886246603051768e+04
4.271368742757489963e+04
1.512853272651771294e+04
8.841155524359170158e+03
2.273439140726898040e+04
2.863622380954382243e+04
3.328853255587945750e+04
2.395110974275584158e+04
4.429558560603586557e+03
1.166055344171802972e+03
-1.614146864923957764e+03
-1.461475060635529917e+04
-1.276223781237103867e+04
-4.772114893214212316e+03
-1.252143190722293184e+04
-1.970820550852853921e+04
-1.598319625969355729e+04
-9.070176034120991972e+03
1.417111662698188184e+03
6.443552796983677581e+03
5.499328470066851651e+02
1.484291267415358107e+03
9.746395006363087305e+03
9.746532658260519383e+03
8.224164350041874059e+03
1.077478104116091708e+04
7.609607219541227096e+03
1.587579508890567240e+03
-1.209389616685125475e+03
-3.457304603308663900e+03
-2.154369706481219055e+03
1.433355145011401532e+02
-5.426237068081295547e+03
-1.043170368822068849e+04
-6.432238953659296385e+03
-2.705438256627276587e+03
-2.253718681962840492e+03
-5.567739518159403360e+02
-3.948722268654369714e+02
-7.962840754785416948e+02
1.424504348207627572e+03
2.330607269453939352e+03
3.185083070370666974e+03
6.739208957832068336e+03
6.123329162876779264e+03
1.180920883120483495e+03
1.605029348218222367e+02
1.632256145709764269e+03
1.238806015565017105e+03
1.859922621137453405e+02
-2.107681301118667761e+03
-4.397039085920754587e+03
-3.391786959397037663e+03
-2.429422532892689560e+03
-3.148357882704908661e+03
-1.549511552520900295e+03
2.713664030321298242e+02
-8.896153844511150055e+02
-1.135818085408485786e+03
8.042055521717785496e+02
2.261502640594270360e+03
3.130224912571650293e+03
2.579267061420241589e+03
5.868428021337094833e+02
5.634049456495989716e+02
1.723256294688612570e+03
8.890761785573571387e+02
-6.870799490356816364e+01
-1.850371282692301733e+01
-8.914466354978417257e+02
-1.756575686785000016e+03
-1.521329623729212926e+03
-1.233858259121485389e+03
-6.146446643671852144e+02
-1.394230836225906387e+02
-1.025070033193649124e+03
-1.254378556330316087e+03
2.021726513168489987e+02
9.391947516104869464e+02
6.787350514516690509e+02
6.893854141559295385e+02
5.468273579424970876e+02
4.451085710704169287e+02
7.448141589546975183e+02
5.915376083444898541e+02
3.843139366203729992e+02
5.576962628202838914e+02
-2.733745777788503872e+01
-8.688570342739913031e+02
-6.364729042878504970e+02
-2.237944122512162721e+02
-3.303151576337441497e+02
-4.090188148283149872e+02
-5.672539152375113645e+02
-5.678427340187362233e+02
1.551661267501778241e+01
2.836910432697673059e+02
4.265183405307906384e+01
1.872954442546794098e+02
3.462994797330700862e+02
9.001985549292139410e+01
1.123522073275891131e+02
3.542889110509249804e+02
3.043264127227806739e+02
1.549963590876240005e+02
-9.335952397263679359e+01
-3.649889334733779833e+02
-1.683777118072933376e+02
1.315823610205081593e+02
-2.442191094116662242e+01
-1.868112494111665853e+02
-1.248044690922680218e+02
-1.616500129200885283e+02
-1.586554324863742806e+02
5.012739115808258816e+00
9.879707354139826236e+01
1.315260677670562472e+02
9.161706245986424335e+01
-8.636457391981051046e+01
-1.028687572174540890e+02
8.620450876956992659e+01
1.008347716404161076e+02
-1.160357026124256663e+01
2.042061713121272959e+01
8.112765948535016491e+01
-1.824572086222219980e+01
-1.270324202167761598e+02
-3.987738084767372015e+01
6.824058129970258335e+01
6.037132066236035399e+01
6.796982519686380897e+01
4.015140650292779156e+01
-8.553445035704750410e+01
-1.336691533996909698e+02
-1.361809301210877265e+02
-1.530799406111819110e+02
-7.115157173017412795e+00
1.035710823873553323e+02
-7.634797525760390613e+01
-1.840509551747651642e+02
-7.467980461952863891e+01
-4.074935723943949206e+00
1.296263639800164356e+02
2.378632469456627518e+02
9.056856545412537685e+01
1.368536872944930849e+02
3.687564518632217414e+02
1.476132665320866977e+02
-9.344180919210197089e+01
7.689798330841988161e+01
-8.510325996617859801e+01
-4.977746000529735397e+02
-4.140998399901479843e+02
-2.002611415571382736e+02
-1.387186134663430721e+02
-6.866437614942634582e+01
-3.479250166105067024e+02
-5.632876982712257359e+02
-2.826870841680732482e+01
3.677270833155002947e+02
2.007698545401465822e+02
3.098105208528875778e+02
4.631790185649442719e+02
3.055122443700217900e+02
3.773029444920369997e+02
4.676365598307354503e+02
4.737531058211957884e+02
6.921747888969342739e+02
1.663564186259456505e+02
-9.562616200885413491e+02
-8.419272521738607793e+02
-1.129988174821899207e+02
-3.854036045122915084e+02
-9.038065578594989802e+02
-1.095740755997533824e+03
-1.110840106115306980e+03
-5.109550905127124452e+02
-5.600696238146901607e+01
-2.682860547072945323e+01
8.837496767218059404e+02
1.437725131245643070e+03
3.753228933320119154e+02
3.209810764927987066e+02
1.711838583319334248e+03
1.912659718278676110e+03
1.182156660353634834e+03
2.246445439044760803e+02
-1.108511472333337906e+03
-8.846286322954398429e+02
1.494843566476138506e+02
-8.543221909837119483e+02
-1.629617511003375057e+03
-7.527537426745591347e+02
-1.431713706507938014e+03
-2.574246806083827778e+03
-1.478967662808416662e+03
-3.506692518793519753e+02
-6.377179844123644692e+00
1.397522974688345130e+02
-8.225688527051394203e+02
1.517743582722736164e+02
4.128917140469174228e+03
4.979049827503707093e+03
2.685452971384086595e+03
2.444806854593332446e+03
2.131551362073426844e+03
3.170903570433582672e+02
2.451793743403813153e+01
-4.743241636191327188e+02
-1.901322913292219255e+03
-2.444957520590868626e+03
-5.226074560272191775e+03
-7.984062301580221174e+03
-4.150019757580114856e+03
-1.790777249534516002e+00
-1.661493849865255697e+03
-2.477031894917875888e+03
-5.294836137858378606e+02
1.608837506269960613e+03
5.700950196824900559e+03
7.720484956876355682e+03
5.846948174045265660e+03
7.023293781295433291e+03
7.006136094859777586e+03
9.251259474510527525e+02
2.816892738184978953e+02
4.704500357114363396e+03
1.011096721473899379e+03
-6.758539250915287994e+03
-1.162363761555567726e+04
-1.401229090018726492e+04
-8.816141639082990878e+03
-3.488073161907686881e+03
-9.401627511033309929e+03
-1.050092245942047157e+04
-8.370110208793018955e+02
9.543430961295023280e+02
2.977867577552861349e+03
1.721888229596947713e+04
2.412360774200960077e+04
2.053877968149141452e+04
1.612839355572056775e+04
6.229793086507003864e+03
1.099013535156022408e+04
3.088500863692413986e+04
7.474670991179978046e+03
-4.498690023503655539e+04
-5.182619079638717812e+04
-5.119045891140801541e+04
-8.235444298903812887e+04
-5.010773454957170179e+04
4.932578689444468182e+04
8.079102858567303338e+04
5.021618904441886116e+04
5.291259298262191442e+04
4.678328979285897367e+04
-6.896116117137717083e+03
-3.056202744931916823e+04
-9.598728854442861120e+03
-5.177323000034114557e+03
-1.666221016703594069e+04
-2.144748620224897968e+04
-2.451493469837144221e+04
-1.810107869537760052e+04
-5.062327056993380211e+03
-3.125268962561397075e+03
1.490654458331568435e+02
1.122891695502084985e+04
1.046088684740211829e+04
4.981337371494880244e+03
1.105181965047661652e+04
1.558510648707282780e+04
1.155184244528394265e+04
6.108192946331759231e+03
-1.528891062774250713e+03
-5.379616930869577118e+03
-7.936200290010914387e+02
-1.117643613580509736e+03
-7.427068943217605920e+03
-7.521318091602714048e+03
-6.111168836757843565e+03
-8.234824890866244459e+03
-6.440596952848621186e+03
-1.902365006957611058e+03
7.584816474548670158e+02
3.093973565984384550e+03
2.669717330572344054e+03
1.045331365372714572e+03
4.924939124289455322e+03
8.224246988618535397e+03
4.398942382052866378e+03
1.074316817482836996e+03
1.460897758653142319e+03
9.517713257642705003e+02
2.392212031663261200e+02
-2.342283217102650781e+02
-1.853976664804807569e+03
-2.545359712571249474e+03
-3.259268381020668585e+03
-5.120645759390635249e+03
-3.538930579428932106e+03
3.941940892197213770e+02
4.616481492448372137e+02
-1.527254148117155410e+03
-1.580376009050844686e+03
-5.425293461470334933e+02
1.324476766205929835e+03
3.123853067296794961e+03
3.114056634616067186e+03
3.063938472400742285e+03
3.046607436416690234e+03
1.148732869414080596e+03
8.768720168377105040e+01
8.528091026469570579e+02
-1.900618590706489215e+02
-2.076589072136874165e+03
-2.420573825417423450e+03
-3.094434181639511280e+03
-3.195789522368718281e+03
-8.416499682764042518e+02
4.879480918367203799e+02
-2.969733749558763520e+02
2.774462451436951369e+02
1.668863155570135859e+03
1.495219035309125275e+03
7.708634871229629653e+02
4.733171318693952117e+02
3.428275355598515262e+02
2.040338107012126443e+02
-3.791063179905687548e+02
-4.700965221998092716e+02
7.611459215672091432e+02
1.037166277344040054e+03
-4.500383437908339488e+02
-9.267932027882975490e+02
-2.464812869901744108e+01
1.747581645156802779e+02
-2.447231130197432947e+02
-4.440294997277373454e+02
-6.134299821435788544e+02
-6.899160141642934150e+02
-5.896619093410913592e+02
-2.466691287809587152e+02
5.499543696986967234e+02
9.819970358965369996e+02
4.218134345486925554e+02
-1.330944799337877669e+02
-1.049498024237926330e+02
8.468640075431775927e+01
3.535836989953208445e+02
3.927655483330346442e+02
-2.891787590927901164e+01
-2.053812338998574205e+02
-1.021869691991330455e+02
-3.139442562577650051e+02
-3.283529724915400152e+02
8.027961198400146259e+01
6.287844601886262552e+01
-2.174621785115520538e+02
-6.040150377923121994e+01
1.193059453349986114e+02
2.197686331287928141e+01
-3.146150314961414729e+00
-5.622924321545185933e+01
-2.034065258073336508e+02
-8.918368999171119071e+01
1.752458524795149799e+02
2.322079708164799285e+02
1.159516737962984507e+02
-6.567655580279156879e+01
-2.092914593487310526e+02
-1.693353903905339450e+02
-5.341277342733931022e+01
1.628432014708003450e+01
1.091119858272713827e+02
1.345565954071364843e+02
1.223334090520244466e+01
-3.139419396309569876e+01
9.035731347775130473e+01
1.705647070811839683e+02
1.271178063504916338e+02
2.221806807296587749e+01
-9.243129026437206619e+01
-2.165240771767496426e+02
-3.604308661013961341e+02
-4.871104988332498920e+02
-4.697947021620178703e+02
-2.610219875745630134e+02
9.096924033929361997e+01
5.409617616164465517e+02
7.925641672795925388e+02
5.602425212879741139e+02
2.057402905167325571e+02
3.893758631532216441e+01
-2.493563349398020819e+02
-4.659113261843758664e+02
-1.150271884509971585e+02
1.585720623199531474e+02
-2.158087592071823906e+02
-4.276170983349696257e+02
-1.631093692874579517e+02
-1.322004716704850580e+02
-1.954076514105033198e+02
7.795022769904775828e+01
1.926095843316224432e+02
4.669182142375213829e+01
1.571091932482752043e+02
3.510093480162483957e+02
3.783609329873657430e+02
4.422955549720919635e+02
2.678558456667207111e+02
-3.260849018095177598e+02
-6.611983438456968543e+02
-4.832630523750608518e+02
-2.887717036865254272e+02
-1.324736585990935396e+02
1.472183410255194929e+02
2.794646210166614537e+02
1.419845660011341124e+02
-9.731200734267108743e+00
-1.579669415467702720e+01
7.977462870338095513e+01
1.292258466649352329e+02
5.009192253876661738e+01
-3.327135920532784752e+01
-1.873892095268828228e+01
2.771383563212747703e+01
-1.434221279026407281e+01
-2.109788860393613845e+02
-3.542762319497701355e+02
-1.879282868892626368e+02
5.493381280143554335e+01
1.752033291700568896e+02
4.501491699206682142e+02
6.630651957517061419e+02
2.326472118139176928e+02
-3.986035648644742082e+02
-5.021812503292543965e+02
-3.934442699909138810e+02
-3.722164651657459444e+02
-1.011609193391575872e+02
2.435738415906000114e+02
2.037005973473305858e+02
4.785320591276067148e+01
9.195517726911612044e+01
1.116332335500994617e+02
2.776927322974878365e+01
2.378530408504435201e+01
6.947888949407295911e+01
3.991584994593631563e+01
-1.717178347118171544e+01
9.159666394226288588e+00
7.686625741260753841e+01
4.330136373149553464e+00
-1.866866227676285632e+02
-2.188890874351516800e+02
-7.052070553959350718e+01
-3.334324693719709387e+01
-1.466646194035162125e+02
-1.712586198033823450e+02
-6.991101306234919832e+01
7.973503730295759873e+00
8.776548625893266831e+01
2.989151061009939667e+02
4.983213763751587635e+02
3.726179311911064929e+02
-1.254391996445214730e+01
-2.436590441951701109e+02
-2.109384727844797283e+02
-1.641785760779998498e+02
-1.687090543827416980e+02
-1.057187609444365961e+02
-5.448913292856808965e+01
-1.389207134176065779e+02
-2.082721333305686073e+02
-9.088120533862928596e+01
8.593277382292124855e+01
1.561738532098657970e+02
1.741186639711587247e+02
1.840821745353222525e+02
1.501527085290047410e+02
1.412334061856705034e+02
1.525535110915802477e+02
4.854798316988419060e+01
-8.814017914792368913e+01
-1.205912148797951318e+02
-1.529140916542810089e+02
-1.760283225375522136e+02
-1.224209147128452031e+02
-2.156265253759266329e+02
-3.901626066973105935e+02
-2.323323157236803240e+02
5.988491619577699510e+01
1.449549221220888739e+02
3.823569334644795390e+02
7.178865153513571613e+02
4.454561070221062096e+02
-1.480027096615467030e+02
-2.293155082223296972e+02
-9.291100542466449497e+01
-2.535109269091102533e+02
-3.145695716634165819e+02
-6.514370962217964234e+01
5.137582497975063944e+01
-8.717518079195970415e+01
-1.526401052967967473e+02
1.217512709455203890e+01
2.006457744599050557e+02
1.455267689915481526e+02
-2.083118858665405781e+01
3.917293143900503871e+00
6.841243926534723130e+01
-5.283752287948052384e+01
-1.652573224096214801e+02
-1.639566666992239732e+02
-1.226583191232265477e+02
6.395920920526555165e+01
2.786352959621008267e+02
2.679613993999511194e+02
2.606701020074345365e+02
3.009530964537839850e+02
-5.503802323592752543e+01
-4.940541205604811239e+02
-3.067275934476078305e+02
2.499528484074697943e+01
-1.817518303093516465e+02
-3.716993878243904419e+02
-1.425061184347859182e+02
-7.153260343889088801e+01
-1.723461970125486289e+02
1.469751525132380436e+02
5.867961424057483555e+02
5.087936172646310524e+02
1.812907834241482874e+02
1.689692860620801440e+01
-1.190907318827449330e+02
-1.604316122925647505e+02
1.064508965500448028e+02
3.030261163730437488e+02
8.088825333556607688e+01
-2.218029124036668236e+02
-3.834045919634634743e+02
-5.841723663469908843e+02
-6.485562390195402713e+02
-3.248738400961946695e+02
2.856286802234499334e+01
1.123912069974621204e+02
2.141122314020884687e+02
4.832364649816420865e+02
6.774035765846738286e+02
6.992480816415153413e+02
5.839161909843937792e+02
2.603489120061155973e+02
-2.333060543656817458e+02
-6.696871410327038348e+02
-8.543032128430559169e+02
-7.356481105374746221e+02
-4.123377819221544200e+02
-5.730014002555756747e+01
1.972778441725320135e+02
2.805607830006289305e+02
2.548179900766343735e+02
2.680921717648330400e+02
2.672129461656164722e+02
1.323706434827730902e+02
2.319555047088820032e+01
2.687908143484966317e+01
-6.046336125130139294e+01
-1.706324882032349137e+02
-5.556800436710429381e+01
7.619924399371768686e+01
-1.755741227299617790e+00
-5.736241288723668674e+01
-2.772417218366009806e+01
-1.090322455800674817e+02
-1.682756098642509244e+02
-6.397400090269987771e+01
2.319964565437421022e+00
-1.141403794587396270e+01
2.179040440894393527e+01
2.984028292683527184e+01
6.739226399361275099e+00
4.983592383656002056e+01
6.740292486024604557e+01
4.395670478371416579e+01
7.929902062326161172e+01
4.669608572245878264e+01
-7.068234607349430121e+01
-3.902330492408849238e+01
4.703346894756906238e+01
-1.771007368819226002e+01
-4.426552982323146068e+01
2.524311949617672113e+01
-3.034049982855495742e+01
-1.242598676831604934e+02
-1.091065135585474195e+02
-1.019229878662518587e+02
-6.629854718363422705e+01
5.266007306204852512e+01
6.169193065972067558e+01
2.250105437232435435e+01
1.285646711783326452e+02
1.573803701724268365e+02
1.334108258746124065e+01
-3.195483413784500293e+00
5.797324627252021401e+01
-5.655478922151306165e+01
-1.695795370998020530e+02
-1.134776644069155935e+02
-5.195002937496152384e+01
-4.267744917786464498e+01
-2.176897480996333911e+01
-3.953712410559443668e+00
2.047514262826893372e+01
3.968783461528031609e+01
3.436852714835946898e+01
8.422886954067078591e+01
1.372985159717086106e+02
7.054157128092812457e+01
7.894328286461846034e+00
-1.046958286771523916e+01
-1.442279684504710247e+02
-2.269087941977151957e+02
-8.218937270133335460e+01
-3.552619078189071899e+01
-1.610816257031924010e+02
-3.593021990973226565e+01
2.369223575805916084e+02
1.740491478394063449e+02
-2.363998582856652675e+01
5.817931260046357522e+01
1.405637890542137711e+02
-7.545842811930262428e+01
-1.973473425558850352e+02
6.429498574143870826e+01
2.513349891474701394e+02
1.346701642210216399e+01
-2.221484871444859834e+02
-1.242472920221090504e+02
-6.469611808112759377e+01
-2.087861665017490225e+02
-1.319745999144373059e+02
1.919841794937416921e+02
2.519186160753478134e+02
-1.127298315775433579e+01
-1.639029780304213944e+02
-6.391671884473316823e+01
5.643766062474541911e+01
6.375083919342104366e+01
8.788049081730767398e+01
1.971600707670396559e+02
1.542418510814845547e+02
-1.292013510181850791e+02
-2.809522830674168858e+02
-1.402190678765965401e+02
-2.289507696570544226e+01
-6.386518816364130657e+00
7.781848599579183201e+01
1.211582468852118666e+02
4.381758213930121570e+01
-3.498389135887884294e+01
-1.520420751095568050e+02
-2.297096825941120244e+02
-4.543035040737847652e+01
1.284390097698821762e+02
1.834689594004174751e+01
2.690848360344586965e+01
2.337979078844895753e+02
1.110351784438450409e+02
-1.636828261080955258e+02
-4.021723917201089193e+01
1.301952808135891360e+02
-3.845800662550453808e+01
-1.190781472646003465e+02
1.914879256024061505e+01
-1.182876514022995451e+01
-1.168074347536098827e+02
-3.649460813734116016e+01
2.837900641637032351e+01
-1.685475729554776336e+01
-8.409488144041482371e+00
1.641726906455132529e+00
-3.248382975288440377e+01
1.899035609540791114e+01
7.904588234034720529e+01
8.770011766109130136e+00
-6.848700857522695173e+01
-7.207198051490814805e+01
-8.347394932118518796e+01
-6.382442905315100745e+01
3.668642054963895305e+01
1.153144519459530528e+02
1.334339638290706773e+02
1.372463455663659033e+02
9.927526748293641390e+01
2.917968307510742676e+01
6.090729574947523872e+00
6.899778061742978252e-02
-6.246183761968883630e+01
-1.465191689325653783e+02
-2.170970393237621465e+02
-2.998244812222200153e+02
-3.653726005289491354e+02
-3.358537833625582039e+02
-1.673058731179693552e+02
1.335594269744566134e+02
4.757524595725338372e+02
7.154521824079060934e+02
7.659384613010716976e+02
5.789550227427158688e+02
1.418897446077715188e+02
-3.731381100685939600e+02
-7.004633116177722059e+02
-7.672370249020395931e+02
-6.285432448704003718e+02
-3.103182077122420992e+02
4.275057334229614980e+01
2.249547134069734398e+02
2.634876154862951694e+02
2.727597060902502903e+02
2.083332349972631619e+02
9.466427246445127253e+01
9.371145401029511390e+01
1.666057257921649466e+02
1.237387104069553203e+02
-1.158720646626672135e+01
-8.263561500812578231e+01
-9.897568920219343624e+01
-1.646089794459926168e+02
-2.213298374964594473e+02
-1.200417387810345247e+02
5.346591462465049460e+01
5.311696699209701933e+01
-6.566670090059952258e+01
-4.515340117161694167e+01
3.253868224633884410e+01
-4.945036588454590998e+01
-1.160567751520734134e+02
3.217389557347172513e+01
1.668573990449708049e+02
1.020336885940584324e+02
4.331569924271359184e+01
1.224372550601156462e+02
1.423511976623085502e+02
-1.155734530690024542e+01
-1.463756806504331109e+02
-1.229897462117855582e+02
-9.338815571285047668e+01
-1.440275675937819244e+02
-9.785407488835413403e+01
4.831438258666689478e+01
4.913227094746225276e+01
-4.813151963741195516e+01
-5.756872052067055101e+00
7.286480405155873541e+01
3.829221298406219631e+01
4.941541424222239698e+01
1.215396483412514073e+02
5.008048244361910406e+01
-7.891191467018330741e+01
-6.672764989743157571e+01
-2.896465388713898648e+01
-7.367312146726700917e+01
-7.043116953052852125e+01
3.362893564282387615e-01
1.381648474806122096e+01
-1.310238327686769466e+01
-1.117202938780827104e+00
1.930897980424392912e+01
8.780953454894506294e+00
-1.930941245828091724e+01
-4.395521812384439642e+01
-1.630239180162883272e+01
7.700566258167265232e+01
1.243478891647995113e+02
5.459449522434537982e+01
-2.506581740935124358e+01
-4.411611317005511523e+01
-8.059736719902613800e+01
-1.235693927453316689e+02
-6.670148560219962519e+01
2.565472087872348084e+01
9.831553133622945140e+00
-7.223748495804373704e+01
-9.404261159145119109e+01
-3.014543849075143100e+01
7.173385421211901303e+01
1.407576659940867216e+02
1.465938196123453849e+02
1.357007319056866947e+02
8.835731644354093817e+01
-6.710379454047708236e+01
-2.102921140078392170e+02
-1.630651460564219235e+02
-3.777421598678562731e+01
-3.595748013267899523e+01
-6.742211123707211584e+01
2.901753165996261785e+01
1.199837490791068717e+02
2.927175359039416236e+01
-7.760870328654776529e+01
3.432367583155421897e+00
8.257630634002833858e+01
-3.629686381426894570e+01
-1.094112294359574520e+02
2.945200940677160872e+01
8.819233014398123771e+01
-3.893329069362019368e+01
-4.419915489615956261e+01
9.471037880796349384e+01
8.305511564664151081e+01
-4.494401857101014741e+01
-5.279517651818255075e+01
-2.689803755096919602e+00
-4.801865285408425166e+01
-1.045843004493526394e+02
-6.540443453323402423e+01
-2.388869466839976141e+00
7.007588548718764798e+00
6.490867080583488935e+00
2.972329040345401552e+01
3.918564758589615593e+01
4.150353896504275752e+01
5.813987737914142429e+01
3.218395135635918081e+01
-2.874863736317118779e+01
-3.403109652324270940e+01
-4.291166603278755076e+01
-1.330968762535254086e+02
-1.487081204574750473e+02
-2.144296367938832404e+01
4.776450257612043515e+01
4.166112703969587727e+01
1.373718157743908819e+02
2.281197930826583047e+02
1.234881416658525666e+02
-3.341961879792970791e+01
-8.970152553541026919e+01
-1.406680541991158009e+02
-1.931278053179627534e+02
-1.342429659276126586e+02
-3.500541663270789883e+01
-6.773549150577534483e+00
1.271438236550838496e+01
4.109326331887518080e+01
2.548541905185199852e+00
-2.809795755534835493e+01
4.245832186142578024e+01
8.949394642825770063e+01
3.690278504905970181e+01
2.880269370695618036e+01
9.774858923383470710e+01
1.039278990734686516e+02
5.262020959784637597e+01
4.679762971426109175e+01
4.573635632751593505e+01
-3.374717255737087385e+01
-1.556832269144280758e+02
-2.283080550238712476e+02
-2.293981805466257811e+02
-2.466278805271164742e+02
-3.183737467419797440e+02
-2.964306001083724027e+02
-8.398570601965911919e+01
2.037946834297136718e+02
4.859538969885990696e+02
7.343879759074307003e+02
7.812898204627650784e+02
5.150681363993859350e+02
4.572509450291771316e+01
-4.571064329501974726e+02
-7.758528257543907785e+02
-7.427689456253997378e+02
-5.108827517129252556e+02
-2.804213905067350652e+02
-4.758105316540335750e+00
2.265793124637609708e+02
2.125332839172491219e+02
1.447387466006754835e+02
2.485770941260580287e+02
3.160763495312173177e+02
2.273575837338134136e+02
1.646100989677967164e+02
1.103498476718095134e+02
-5.002681750495567314e+01
-1.809094138918873966e+02
-1.904811805728831473e+02
-1.757087180401996989e+02
-1.527966373807602167e+02
-9.075899181984583208e+01
-3.875014828297613434e+01
-2.015382382349088886e+01
-2.388960435661705972e+01
-4.443177928782531438e+01
-3.857203327185149533e+01
3.169537244909633955e+00
3.769900246700116497e+01
9.401361977318873642e+01
1.852852767747227745e+02
1.869880923721686372e+02
5.929443912073017486e+01
-4.177727127358441805e+01
-5.772455664045551771e+01
-9.190397725423650854e+01
-1.110903433686745814e+02
-1.920899390553984176e+01
3.813176758441649383e+01
-5.881413261153443273e+01
-1.139892537006830935e+02
-4.578886852048748324e+01
-4.044308154484065199e+01
-4.554027248867666344e+01
9.164603127908050340e+01
1.483476907679425949e+02
-1.027032592584176562e+00
-6.449744554057508594e+01
4.806196832359419524e+00
-2.864214851328988942e+01
-5.894755874391211137e+01
7.919734569817175895e+01
1.642115946450495585e+02
4.241511210532749487e+01
-1.006294786721661865e+02
-1.224137361407476305e+02
-9.076472844712367305e+01
-8.596288086477461832e+01
-4.739727166994018148e+01
8.571688949126208001e+01
1.503218986170515450e+02
3.652355525743006126e+01
-4.730057361510205993e+01
-2.111127646419404869e+01
-3.727987855826206243e+01
-2.857668286455194107e+01
4.076205053302547299e+01
-2.283815762143714423e+01
-9.694362276542393886e+01
-7.241757858121626867e+00
-1.639427973032866248e+01
-9.185860758192521303e+01
9.502475812741101890e+01
2.212548331676386226e+02
-5.851225924994188254e+00
-1.092587579937468121e+02
1.194087176700624653e+01
-6.245045064508703092e+01
-1.478496712396498651e+02
1.621446378091859941e+01
8.985658077210416650e+01
1.114359049336574259e+00
1.065463705829286489e+01
2.004542757957174359e+01
-3.923216198361926388e+01
-5.941275641443717781e+00
4.110818126188124211e+01
-1.932586671677000822e+00
-4.399159687651950179e+01
-7.013270248671096851e+01
-6.354911072073466727e+01
-9.664390247214836194e+00
-1.545291050315653791e+01
4.604907072477268493e+00
1.348141718332483947e+02
1.005084444678423381e+02
-8.273627837719755007e+01
-5.572495258288335407e+01
2.262855925421626679e+01
-8.359298253781905430e+01
-7.292033395607305124e+01
8.003945414962021232e+01
6.054560421466743492e+01
-1.620070240372681880e+01
-1.857908735835435010e+01
-7.680927032163310741e+01
-5.943960173114411560e+01
7.270049150317946385e+01
4.622692708187368282e+01
-2.737775966902748337e+01
4.491843532630835512e+01
-1.767996789230964261e+00
-1.531269234790038070e+02
-7.133040576392779997e+01
8.107354574495461463e+01
5.088534351215171370e+01
1.408492396006918490e+01
1.972802663986200855e+01
-5.295509283510858722e+01
-9.021918983909425549e+01
-2.432215316055980736e+01
2.684734081621742874e+01
4.482785363055155159e+01
5.341154750519866212e+01
2.246243905972268706e+01
-2.488312497933701906e+01
-3.449909306457276159e+01
1.690016594098603520e+01
6.062047219190908010e+01
-1.057246780296638100e+00
-5.718019215120654053e+01
3.858836674513801412e-01
-1.143063243919184480e+01
-1.159763391188047166e+02
-8.547305147187087471e+01
-3.211091303018795884e+01
-1.282802534168721422e+02
-1.280141573641545563e+02
3.700872803683421353e+01
1.110512032295281131e+02
1.282890337979687843e+02
1.890477317317958921e+02
1.566697907278083619e+02
7.461457636684949080e+01
7.056187504344717354e+01
4.988649126081281793e+01
1.943579461188331692e-01
-2.855754466705591454e+01
-1.385124594325789644e+02
-2.799587699543267831e+02
-3.121357104364768702e+02
-3.160641665001558067e+02
-3.027020195984530346e+02
-1.751090623116176062e+02
-2.036669892461301856e+01
1.655956393584843056e+02
4.782238928598505368e+02
6.967779516552033101e+02
6.530603140971611538e+02
4.886923965686076485e+02
1.571273677759696739e+02
-3.801305529703854518e+02
-7.370347311039737406e+02
-7.145855358791617391e+02
-5.449654650909454858e+02
-3.029396273461288729e+02
2.472383667064409352e+01
2.381123916632593307e+02
2.504003911245000324e+02
1.888953376060352980e+02
1.471645147518133285e+02
1.530774185969880818e+02
1.558487690995198136e+02
1.031180718051961236e+02
7.799455208946456253e+01
7.598761739695214601e+01
-1.984915918054243988e+01
-1.081874040742474108e+02
-9.331282603797744457e+01
-1.308460169177153603e+02
-1.964227110404871155e+02
-1.193757509988028431e+02
-3.906862970680949587e+01
-6.635131865211965874e+01
-2.380375833271848762e+01
6.323188823738113484e+01
2.941677447127764466e+01
-1.467130986271623527e+00
5.682811897472945617e+01
5.997760473751370114e+01
3.324832924253594513e+01
7.349438989018526058e+01
7.568565520454741602e+01
3.339248603081326650e+01
5.719350472709128042e+01
3.224373501690219257e+01
-1.120931479793243000e+02
-1.548773901902454782e+02
-7.413122132847385615e+01
-9.688868940590222678e+01
-1.233881662893157483e+02
3.982971259096412098e+01
1.442480914029955557e+02
1.754369394160784523e+01
-4.672095578616271894e+01
3.492181531065536859e+01
8.237352902629362816e+00
-6.940945876771507983e+01
-1.053228289966942199e+01
5.056772738589433658e+01
3.049910683923880228e+01
3.547073416024990422e+01
3.175203748841468609e+01
-2.516278123156366675e+00
-2.003423005919931832e+00
-4.994345033543071821e+01
-1.211460053454740233e+02
-4.133939028199633015e+01
3.909475447466146392e+01
-3.134403121879449117e+01
-9.844635752160609599e+00
9.084050785709305842e+01
-6.043434920870646820e+00
-9.340016860487979500e+01
3.851182027602094138e+01
6.791331269171351437e+01
-5.997384692365869796e+01
-3.161855695682016787e+01
4.637970294575573149e+01
-3.142739335453180871e+01
-7.090691998391272932e+01
1.254094389273695498e+01
5.623458396812510784e+01
2.899048210520751923e+01
-3.017975291022730389e+01
-6.151093701706490435e+01
8.277030864336486715e+00
3.235406502381108140e+01
-7.818169575438194840e+01
-7.398228475832449647e+01
5.826523072458113717e+01
1.742609498315293948e+01
-8.598466479519632344e+01
3.780145030519629756e+01
1.762738976913248621e+02
7.334066409306598189e+01
-5.812087402754143284e+01
-3.118594781403784921e+01
-2.082788341487086825e+01
-1.411644535186711664e+02
-1.852025628671622428e+02
-1.867666641666459881e+01
1.130988544832676013e+02
4.145725937892928670e+01
1.257710918481580187e+01
1.022195607513583582e+02
1.667226678267055107e+01
-1.739531175832802603e+02
-1.199870473698565121e+02
3.769776498185557045e+01
3.795236476516738122e+01
6.909777394327838351e+01
1.954034361512800331e+02
1.425623865507853907e+02
-5.718964862808160632e+01
-1.353915695919881728e+02
-1.103271960705385624e+02
-1.012358447567362418e+02
-7.052948420475749458e+01
-6.532154744731148988e+00
3.403322025935660378e+01
2.359442794166390911e+01
-4.220930319710053169e+01
-9.552770008256835865e+01
-4.496248342115475083e+01
4.182512258038391195e+01
4.796126646121092563e+01
4.506952383917949589e+01
1.214330204038012653e+02
1.393438341685676960e+02
-5.916526181212116597e+00
-1.193238969026982090e+02
-4.941518709632633488e+01
1.869998559417015827e+01
-3.164558564484016756e+01
-9.138907391116450896e+00
1.076876847817023446e+02
6.279384046449725787e+01
-1.304415215294209247e+02
-2.012859877201962604e+02
-1.337421286809917547e+02
-8.382037566189245581e+01
-4.263616738764702063e+01
2.646613400351024481e+01
5.852268187894189566e+01
4.132192696131804865e+01
1.202977680050792308e+01
-1.295228007831164696e+01
3.743094464264225962e+01
1.881491511321344205e+02
2.711619444522697222e+02
1.891560096970212044e+02
1.098508637163298971e+02
8.396500333968191399e+01
-8.878689636737755109e+01
-3.440241417258851016e+02
-3.741197721888166257e+02
-2.663715075376389336e+02
-2.981674559685047257e+02
-3.221549585959073170e+02
-1.612486658107434323e+02
-3.719354689492792687e+00
1.218813920676167299e+02
3.831915014333323484e+02
6.361995089054329355e+02
7.035769302250696455e+02
6.255438789723068567e+02
2.909313401690876617e+02
-2.869097011423197046e+02
-6.685842654451620319e+02
-7.272632427169826315e+02
-7.222399312523551771e+02
-5.119040359386746104e+02
1.145328214365868291e-01
2.989781462344299143e+02
2.350987201367069019e+02
2.701485318232497548e+02
3.639756268180711913e+02
1.904250030604032133e+02
3.030163661899802818e+01
9.840511072360978062e+01
3.462444064988852688e+01
-1.851486553318810877e+02
-1.749760455576786171e+02
-3.758384600065397763e+01
-6.845391642921488540e+01
-6.910422111447081761e+01
9.925606927331254781e+01
1.306896562110100888e+02
-3.019040684608728142e+01
-7.850923486252818861e+01
-3.758031582150903205e+01
-1.271350816495546496e+02
-1.997063640177672710e+02
-7.619811938906561011e+01
5.566686218290386989e+01
6.776854383712201013e+01
9.969422179019977648e+01
1.547524692347996904e+02
8.970454863672347301e+01
-2.352745798948086176e+01
-1.791366040806016358e+01
2.929798931729023082e+01
-2.612785880852710108e+01
-7.025209602873579229e+01
1.401701313945629934e+01
3.935024672122753486e+01
-7.309157790180042014e+01
-6.917862829454301732e+01
2.527486914890040026e+01
-8.536395313549056141e+01
-2.114546867530639531e+02
-4.863523164484698214e+01
1.076178862196660759e+02
5.343195551775464480e+01
7.541590763231189953e+01
1.378149999638267786e+02
-4.962978551075216238e+00
-1.236186128640419781e+02
-4.034476209237498523e+01
3.372186991653005350e+01
6.929652713099166306e+01
1.099827611203454722e+02
1.724684503758928500e+01
-1.100604656302865720e+02
-9.884071782570204334e+01
-7.684065443084847402e+01
-5.879365836558937986e+01
4.271058820642923592e+01
4.066565942856649229e+01
-7.729162710536868985e+01
-5.912469336467145808e+01
1.148786890810721673e+01
-2.006052455415508362e+00
6.100542129773567268e+01
1.288962897738548747e+02
1.444028069957254345e+01
-7.082763614532038332e+01
4.138027425488989941e+00
3.259709841539476116e+01
5.610004309902085318e+00
3.086275035987803861e+01
-1.898360343649068582e+00
-1.201898116059542616e+02
-1.689860169392875946e+02
-1.058726104733319460e+02
-1.530668168692620057e+01
3.899225698352481828e+01
7.749914122784402082e+01
1.214220013576472041e+02
8.325128783383139819e+01
-3.976784841236385759e+00
4.048833014966149335e+01
9.049886520899653419e+01
-5.122494637919826488e+01
-1.345350068540053599e+02
-4.688219628003914607e+01
-8.282981073322550003e+01
-1.511037192564863574e+02
-2.784933366952415668e-01
9.152627377045230617e+01
-5.396342683400337847e+00
4.455391420215595311e+00
5.568489486840547897e+01
-2.305845835695995660e+01
-1.432565225746105142e+01
7.847277069561344831e+01
2.864431379211934114e+01
-3.226827756654113699e+01
-4.909060000857873085e+00
-3.793301708050739052e+01
-5.101166668889550238e+01
4.448526550227116871e+01
7.517307523948443304e+01
3.371906330384653927e+01
2.481109892903184289e+01
-4.175166054875357702e+01
-1.394920240282661723e+02
-1.008468533429498137e+02
-9.926006420942769637e+00
-3.342218892751303372e+01
-1.014331001812730619e+02
-8.166569527492748648e+01
-4.510933897230798628e+00
2.887268023112552839e+01
7.607269139625962850e+01
2.243914556050768567e+02
2.714184671689596371e+02
6.390043973841244451e+01
-1.198404687130171880e+02
-1.162809753166318103e+02
-1.043504201461079930e+02
-6.397643606513013737e+01
5.600928243151721375e+01
4.470424512980311960e+01
-4.508558413549221200e+01
-9.730091102110627332e+00
-3.293602754801983679e+01
-1.500933365100255230e+02
-8.801108140056203410e+01
-2.066221497228833925e+01
-1.872836115675337965e+02
-2.346766150648198561e+02
4.723343507875219061e+00
1.735379775453558580e+02
1.979967744091687507e+02
2.549004914504381816e+02
2.575373682199821133e+02
1.694377798023878654e+02
1.490143101483123473e+02
1.386916693818153021e+02
1.800270945714056658e+00
-1.355349120584135107e+02
-1.898460508137275440e+02
-3.185261187074368081e+02
-4.657214341654303098e+02
-3.678962368382650538e+02
-1.863149888811950916e+02
-2.445756446673238429e+02
-2.789067514073620373e+02
5.965472572816702979e+01
5.237465976794161406e+02
8.031488157862075923e+02
8.562964410586919257e+02
6.042718111885873213e+02
1.111245981701525807e+02
-3.739962157718869662e+02
-7.320128632378892917e+02
-7.794602156028902300e+02
-4.128681259024887709e+02
-5.753474729342134708e+01
1.832624561417679843e+01
1.155673590871849257e+02
2.764636639887440310e+02
3.090678420511903255e+02
2.823531872796233984e+02
1.183288069636969055e+02
-2.004319752563988573e+02
-2.463145743958139633e+02
-4.366864751254253463e+01
-7.839325273569289720e+01
-2.004226560724650028e+02
-7.983517673857114971e+01
1.368913137384720535e+01
-1.033317745082670314e+02
-1.309680212263271244e+02
1.718578887298642144e+02
5.309274384212856148e+02
3.764878060344797746e+02
-1.312375820102186594e+02
-1.447917436341136863e+02
2.570401885096055707e+02
2.619590616484011321e+02
-5.292708990947136982e+01
-2.376365381106672601e+02
-3.307847314970271100e+02
-2.621471084862672569e+02
-6.624748969639827578e+01
-4.229313530580323999e+01
-3.909402834264125914e+01
-1.286615596507899113e+02
-7.325068341347539445e+02
-1.116112285599301458e+03
-3.656040920840001718e+02
8.099132980994539821e+02
1.348332306054564015e+03
1.003174400152510884e+03
2.722749652771278761e+02
3.728231386096656479e+02
1.233977007247862275e+03
1.016443865324990156e+03
-2.386469168067618796e+02
-9.367649546704426484e+02
-1.577764810878146136e+03
-2.642712554511115286e+03
-2.304256688569986636e+03
1.709376799861914265e+02
2.771543509171738151e+03
2.536089949199725197e+03
-1.320758347962166908e+03
-4.067096171761766072e+03
-1.445402430593413555e+03
1.895568788431251050e+03
1.971670120487692202e+03
3.965232791823649222e+03
7.367071776950740968e+03
2.790930470499676630e+03
-6.603430374866340571e+03
-7.806741466546477568e+03
-2.600389090538798428e+03
-1.284091514787056440e+03
-1.583855777846763431e+03
2.291269932696596697e+03
5.332535231676641160e+03
2.680888343326740596e+03
-1.078737293813426504e+03
-1.406376349502704443e+03
1.859616490437841776e+02
1.021598068982902987e+03
-5.572303946152327114e+01
-1.937093652426291783e+03
-9.946330591241586490e+02
1.736987802505956324e+03
-5.695846312140763530e+02
-5.188015158882782089e+03
-1.224176411449070429e+03
6.110568492797448926e+03
3.082156495080514105e+03
-2.496388114043887072e+03
2.143689904575811397e+03
5.778233049889608083e+03
-1.192998010801796454e+03
-5.688798494475844564e+03
-1.526737119111045331e+03
1.985333731062472680e+02
-3.922863094362158790e+03
-6.327392693573187898e+03
-1.731599453795904537e+03
7.039164513609536698e+03
8.683981838582009004e+03
1.053940026223341874e+03
-9.849531639870939443e+02
2.877146032314889453e+03
-3.079318677395587656e+03
-9.471038955196583629e+03
9.150274954557421552e+02
1.041167315242298901e+04
2.355719101117943865e+03
-5.410683249676997548e+03
-2.944955115762124933e+03
-2.767532678071806913e+03
-4.419019102639931589e+03
3.596043849288014371e+02
5.565610748719302137e+03
4.742442699019309657e+03
4.761145643866385058e+02
-3.262865803411673369e+03
-2.731793189671594973e+03
1.069272027670145690e+03
2.637461044574042717e+03
2.228978908077036522e+03
1.307127323626869838e+03
-2.054041861201509164e+03
-3.798060369657637239e+03
-1.296497807640769679e+03
-8.330665173844529363e+02
-1.193771182436760910e+03
2.249778787744138754e+03
1.731273642559225664e+03
-2.909128005019842021e+03
5.317574387584999158e+02
6.282850610575896098e+03
2.544959485154552112e+03
-6.653512685420698745e+02
1.932857479931498347e+03
-1.841897048770618085e+03
-8.428533616131939198e+03
-5.080696226345402465e+03
4.916047805836882389e+02
-2.705341956491388373e+02
6.107483634773717540e+02
5.022369587108122687e+03
5.198397596869116569e+03
1.657571858904675537e+03
-2.226293283828970573e+02
1.893721748846425896e+02
4.098126869512647090e+02
-2.035325220259150683e+03
-4.501475820341516737e+03
-2.037681777811251777e+03
9.829565020486215872e+02
-8.217386339658472707e+02
-5.073211579915773086e+02
4.704668498213510247e+03
4.276821970438502831e+03
-2.369279665934399418e+03
-4.028022582316847092e+03
-1.866184803707224546e+03
-2.834576936328136526e+03
-1.602116412138500209e+03
4.099038362239245544e+03
4.794695203191360633e+03
8.718682959733364441e+02
1.529245731311407326e+03
2.547345725717364530e+03
-2.124323728779039811e+03
-2.839331576832229985e+03
2.833954696396816871e+03
5.661816225540846972e+02
-7.987962676989677675e+03
-5.534067360836639637e+03
2.767210302263497852e+03
4.970842397250134468e+02
-3.152508734440285934e+03
4.476960674802821814e+03
9.415763218149097156e+03
1.677347792626185992e+03
-3.919649331220317890e+03
-4.865228354657698446e+02
5.915963467154141142e+01
-4.556369988843654937e+03
-4.118726240937102375e+03
2.692104648308384640e+03
7.268994806335850626e+03
4.410549186859043402e+03
-2.267144821043548745e+03
-5.667933226914458828e+03
-5.116015124852412555e+03
-4.555727782025195665e+03
-1.926066513932339376e+03
5.061842297933240843e+03
8.851368335490855316e+03
3.792336564263420314e+03
-3.681668182678568428e+03
-5.822671586166009547e+03
-1.736800943879952229e+03
4.433896190218210904e+03
6.429899094845899526e+03
3.299558327014790393e+03
-3.832872041348268795e+02
-4.767534104864595975e+03
-9.763910331829216375e+03
-7.532780026338846255e+03
1.697526379115700820e+03
6.285002408229811408e+03
4.494480214774926935e+03
2.441571129853798993e+03
-3.509287031755822568e+02
-1.669113807069858467e+03
2.172005218160474669e+03
2.722621155070432451e+03
-2.817298664434513285e+03
-2.606164979318290079e+03
9.764743744241613967e+02
-3.227647263312238465e+03
-4.252626742067857776e+03
6.063901827355846763e+03
8.456807858416786985e+03
-2.849989981504475509e+03
-6.626868066280912899e+03
-2.114995264513795803e+02
1.097402722724000910e+02
-2.715307535250145065e+03
1.445193192434954199e+03
4.529389309239491013e+03
-1.849815055928072525e+02
-3.859408600230469347e+03
-1.146267374027748247e+03
2.574084058607779752e+03
3.341635748479931408e+03
1.823230623367521957e+03
-6.621070011682306813e+02
-2.405199833459924321e+03
-1.863137715483562488e+03
3.589609503087199300e+02
1.824170280595024906e+03
1.129729557309934535e+03
-5.405073825310631719e+02
-2.135282237297918982e+03
-3.644587502802996823e+03
-2.628072531013580374e+03
2.230502181328873121e+03
4.704002931868165433e+03
5.528770771334069423e+02
-2.834253556267876775e+03
-6.260167413694341576e+02
7.078255294946259255e+02
4.148113006424043192e+02
4.431054531217760996e+03
6.391594107337308742e+03
-8.306061822521028262e+02
-6.034270590090744918e+03
-2.774383789828513272e+03
-2.468316245971757326e+03
-4.833831201667289861e+03
7.280610694560282354e+02
4.874273114618777072e+03
-1.552353165818243724e+03
-2.831556907441918611e+03
6.049280846960974486e+03
6.502894875550534380e+03
-1.380966906005582814e+03
-1.273548605178247954e+03
8.669328794338272246e+02
-5.540669713757377394e+03
-7.619845377119131626e+03
2.057761606685967763e+03
7.926371452200408385e+03
3.412677918287769899e+03
-3.980117698949636917e+01
-2.145608387902237837e+02
-4.081849786828192009e+03
-6.885469468871086974e+03
-1.776373926635916632e+03
3.462968198715631388e+03
2.837667953857492648e+03
2.920812433931982468e+03
3.556153455047022817e+03
-1.020098353400955261e+03
-3.277592417121663402e+03
1.402372483169269799e+03
1.462364011818815243e+03
-3.174508034728799885e+03
-8.762463021550761368e+02
1.423453771248186513e+03
-4.479988577466770039e+03
-5.261011237764259022e+03
2.684118128465711834e+03
5.079416409837569518e+03
3.053084472116022425e+03
4.499424697332317010e+03
2.229867721382734544e+03
-4.424299161216151333e+03
-5.213884774802850188e+03
-2.736112841320893949e+03
-1.783005270144608630e+03
2.978981141176515393e+03
6.500611429815727206e+03
-4.465915102748515437e+02
-6.554572036804862364e+03
-1.481566380597880425e+03
2.482354076008150059e+03
-1.983623142380035915e+02
2.828664127396096319e+03
8.488903647367485974e+03
9.857088616077022607e+02
-1.113223413957078992e+04
-8.359726557387753928e+03
1.734449923022983512e+03
2.990511624593581018e+03
1.609744256012076221e+03
5.023947380886804240e+03
4.425314349504807069e+03
-2.475959068572027718e+03
-5.299443191029935406e+03
-3.964532974958100908e+02
5.680368169309105724e+03
4.877782632083602948e+03
-3.318538015820030068e+03
-7.988571006433256116e+03
-4.520231660824507344e+03
-2.566165577495903108e+03
-1.631590662708336367e+03
6.654586945972912872e+03
1.164258409450728504e+04
2.992915491579859008e+03
-6.069709066194320258e+03
-6.717944900662692817e+03
-4.742059909555953709e+03
6.287509564646255740e+02
7.742354717481489388e+03
6.991770007420379443e+03
1.772284371712447864e+03
-1.196602861597812307e+03
-6.573495731995134520e+03
-1.007827647957993213e+04
-2.637900125682248472e+03
5.897610139949969380e+03
5.255292453375902369e+03
1.419264632163500664e+03
-1.069873339458431701e+03
-1.788488534331186202e+03
1.721930574415894455e+02
5.101203933182360117e+01
-1.231644794544182560e+03
2.746044872353050778e+03
2.891379005105604847e+03
-5.674587811279573543e+03
-4.771541272724160081e+03
6.624064894427405306e+03
6.818834185594012524e+03
-7.729081602279544541e+02
-1.582016474834407234e+02
2.039168859646663350e+02
-5.606699126900167357e+03
-5.785919204879573954e+03
-9.257848535550577935e+02
1.750596536082176726e+02
4.228082354072625293e+01
3.428710709755770836e+02
-9.192449967680170175e+01
2.885101069682289562e+03
7.121111907680844524e+03
5.460243422394388290e+03
2.676238218797781201e+02
-3.149953825992160546e+03
-4.291063400542686395e+03
-3.865694765103412010e+03
-3.304287756956475278e+03
-9.264761085741886291e+02
4.037486783394300801e+03
2.564886234993919061e+03
-4.333524547341870857e+03
-8.589929758239505873e+02
6.363776535396082181e+03
1.709394321073340848e+02
-4.783351621145593526e+03
2.323304267249752684e+03
7.797903442521511579e+02
-7.246992081203355156e+03
8.060962757970604571e+02
1.052870030764390503e+04
3.219234805559536198e+03
-2.962093438354982482e+03
2.020257227997909766e+01
-2.689464903775499806e+03
-7.400606004843033588e+03
-3.353829688346853800e+03
3.048241782121760480e+03
5.008989098452061626e+03
2.568736285852695801e+03
-1.220297241815264670e+03
-7.731639748707154922e+02
1.648355382285376436e+02
-3.452208619092056324e+03
-2.308353325885863342e+03
4.693444074384444320e+03
5.072312279236076392e+03
1.040098007454633034e+03
-7.474587040718471371e+02
-4.227312113254572978e+03
-5.136664975926677471e+03
-5.451903639472114946e+02
3.897689939541461399e+02
2.179411657752824340e+03
8.486610971766622242e+03
2.255362126036389327e+03
-1.035620238097820584e+04
-5.227835260992968870e+03
3.804295862470070460e+03
1.589597094255860839e+02
2.394542196366870485e+03
9.406874282137865521e+03
7.333451799154738637e+02
-9.147298993630147379e+03
-4.297811400212857734e+03
-2.055291907660639765e+02
-8.468798897140320605e+02
2.917336436456997944e+03
3.813851356564540765e+03
-9.499676344414209552e+02
-1.545542676138889192e+03
1.665756774843023550e+03
3.247076035315739773e+03
1.587987439870044454e+03
-3.491852719758644071e+03
-5.423448479320876686e+03
-1.968679305829665509e+03
-1.146978376199173226e+03
7.348100526896024576e+02
8.649952073404701878e+03
7.523369554978944507e+03
-4.861331749822035817e+03
-7.698828741199736214e+03
-1.079390797663878857e+03
-4.221174855749977723e+02
-8.284667933483214028e+02
3.776884184198230741e+03
3.924408647120399110e+03
-1.226676445688242438e+03
-2.776947621668169177e+03
-7.782487039562740847e+02
7.364280980546117235e+02
1.654384283226320122e+03
1.017793108687344670e+03
-1.995597942735803827e+03
-3.231590913011365046e+03
6.534697640120072037e+02
3.543206242860632301e+03
-1.717543592715165630e+02
-1.945653554450187357e+03
3.339586217892937839e+03
3.211225064080611446e+03
-4.352938959068739678e+03
-3.699951565381707042e+03
2.899847102597145749e+03
-2.805183834664370011e+02
-7.049437128792504154e+03
-2.965510603283425098e+03
5.981054583100461059e+03
6.818875206206089388e+03
9.880929812662125187e+02
-3.353788796672271815e+02
3.993796155106004335e+03
1.725535351221656583e+03
-6.560009200494200741e+03
-5.230464813429368405e+03
1.477100289559994053e+03
-1.707053061803282390e+03
-5.960640661616474063e+03
-9.297090608018648936e+02
3.614915275283162373e+03
4.672974285071932172e+03
5.378817276199554726e+03
8.416177746309036820e+02
-2.243431246520273362e+03
3.070684918215270955e+03
1.505567637707886661e+03
-7.524443119569125884e+03
-3.780370618973602177e+03
4.120462854293377859e+03
-1.914682226827760132e+03
-5.784302937773145459e+03
3.895867395998453958e+03
8.774669075470656026e+03
2.029228528442690049e+03
-4.562397477204123788e+03
-6.035790152736462915e+03
-3.214849150244249813e+03
4.379070408520428259e+02
1.086501977676717615e+03
4.056076533142017524e+03
9.428095894290103388e+03
4.302768102211617588e+03
-8.368001108392492824e+03
-9.661283764057614462e+03
-6.136804222057664902e+02
2.429662168855327764e+03
-4.602498465750495171e+01
2.853180126421496880e+03
7.089446364825979799e+03
1.687723429679391529e+03
-6.797171621984358353e+03
-4.574900721456464453e+03
1.601992326322354074e+03
-1.051616188986577299e+03
-4.145697734401820526e+03
1.053129938290145674e+03
4.430651862361849453e+03
1.718850424403806755e+03
1.399504678331165451e+03
3.540342800221236757e+03
2.437463275303118280e+03
-1.656005325371736262e+03
-5.077022092701557995e+03
-3.760906228269501753e+03
-3.230135524284906410e+02
-1.897972411288655849e+03
-2.565680440243533212e+03
4.321327110509776503e+03
6.347359109698160864e+03
-3.956752962283820807e+02
-9.224286836206155158e+02
2.564272718926925336e+03
-2.367912786029261952e+03
-6.831970135409118484e+03
-1.995905681385741445e+03
3.268773325119199853e+03
4.147235590761713866e+03
3.074286419153993393e+03
1.234948689826995633e+03
6.622343048263894616e+02
-1.785936666445795481e+03
-7.020541289542886261e+03
-4.083492894356022589e+03
4.153611578023802394e+03
1.992033782176764817e+03
-2.245899319468053363e+03
2.948630738206248225e+03
3.019252157795184758e+03
-3.808026446610217590e+03
-6.835845289003035532e+02
4.800221927622161274e+03
1.741143867422126448e+02
-2.389171603259819676e+03
1.278631039466046786e+03
5.757700677168340917e+02
-2.222741299313845502e+03
-2.006767524341944636e+03
-1.407060429648448235e+03
-4.179648300527466063e+02
-9.746766307334812609e+02
-2.595019492183870170e+03
2.924722946591037726e+03
8.647341798537823706e+03
2.187871073935548338e+03
-3.289359233841139485e+03
9.084808889508973380e+02
-1.322935749292698802e+03
-7.737410458515458231e+03
-1.614204621381404422e+03
6.343105534087155320e+03
3.177253552599365776e+03
-5.706739698435347918e+02
-1.286897502380559217e+03
-4.353658850217251711e+03
-4.187582538616045895e+03
5.238741146882952080e+02
3.412628233507515688e+03
5.363343717536738041e+03
4.709665654801268829e+03
-1.912947151751653337e+03
-5.625535655255842357e+03
-2.953121900183989965e+03
-1.574546541904715923e+03
1.856548622448699916e+03
8.516912326893281715e+03
4.656881087234801271e+03
-5.522121020081103779e+03
-4.331960517783498290e+03
-6.978060297985119860e+02
-6.122609735206010555e+03
-4.492588636196674088e+03
6.439950256388317030e+03
5.170318213085554817e+03
-3.487811869297335306e+03
3.744217499288249087e+02
6.976400855923381641e+03
3.187510333896533211e+03
-5.337689608909868184e+02
-1.164815479471589697e+03
-5.714793211731969677e+03
-6.484664875160271549e+03
-1.683388743815265798e+01
2.540273083104665602e+03
3.144226914284941358e+03
7.320413024963064345e+03
2.747365359197134239e+03
-1.014219160544971237e+04
-1.011751608518999456e+04
1.558945633485850067e+03
4.867013820419438161e+03
1.559409307083889416e+03
3.763761289692841274e+03
6.276519865144545292e+03
8.807681110028911462e+02
-5.777154954697150060e+03
-3.189718347892178826e+03
4.637369755813846496e+03
3.067213217086113673e+03
-6.555197777118085469e+03
-6.878688923047381650e+03
5.862570218423801407e+02
-7.405885058011838851e+01
-3.119076375313125482e+03
2.886862415759839678e+03
6.830835392820468769e+03
1.804383511839803532e+03
-2.191787895307001577e+01
3.762118995647685551e+03
3.917809780817926367e+03
2.828176342114251156e+02
-3.578536351539917632e+03
-7.672146353948810429e+03
-8.904708057268611810e+03
-4.220550761006806169e+03
2.869897761278537928e+03
6.583179014426896174e+03
5.921382353117202001e+03
4.347214487832357918e+03
1.389762480918186156e+03
-4.734826193248230084e+03
-5.651743226121418047e+03
2.181607160782798019e+03
4.290924100827570328e+03
-2.005489664950499900e+03
-1.501512008360672780e+03
2.118244311496511273e+03
-2.143991237881019970e+03
-2.732279091911284922e+03
3.637249408654020954e+03
1.832108376436633307e+03
-3.586268523225144236e+03
-1.887064420297484503e+03
-1.698308695918857893e+03
-2.372051080968828501e+03
3.735156844908358380e+03
4.929615492717304733e+03
-4.947777455629776000e+02
2.021432035550093588e+03
4.222578237511445877e+03
-2.814997610933658962e+03
-2.677131025409497852e+03
2.834103820918347992e+03
-3.973969578203597848e+03
-9.958572982197973033e+03
-1.309937185410349684e+03
4.618397531966988026e+03
2.002624882187540379e+03
4.411492968310105425e+03
7.384227007564325504e+03
6.321829890039256270e+02
-7.043685797255309808e+03
-5.392989145861036377e+03
9.413090315999850191e+02
2.193465453370542491e+03
-9.338067942427825301e+02
5.157940236088210213e+02
3.060983510647737603e+03
-2.249630407815870967e+03
-4.357425839563103182e+03
4.562484131712775707e+03
6.681516977353879156e+03
-2.205873557380731199e+03
-4.220745757579750716e+03
-1.628142590722608020e+03
-4.988298877293214900e+03
-4.205930184470577842e+03
3.842305260628503675e+03
7.268455201251876133e+03
6.490527624670437945e+03
4.693532016335860135e+03
-1.882272695215179056e+03
-6.605466342252805589e+03
-4.857360373036081910e+03
-5.809542920669214254e+03
-6.765130594158253189e+03
1.870032210942974871e+03
9.198266097068652016e+03
5.498958474688536626e+03
2.379383207124010369e+03
4.302750148988342517e+03
1.141997161020298790e+03
-5.517090625639707469e+03
-5.983597049903803054e+03
-2.127330075472143108e+03
5.390781171896502855e+01
4.736519932214556547e+02
-5.342890822625329292e+02
-1.484640090624494860e+03
9.361243340112288251e+02
2.452422268838671243e+03
-1.148966971309429937e+03
-5.222990165848776769e+02
6.899665727174603489e+03
5.525537729502465481e+03
-4.428393237479546769e+03
-4.230556544415355347e+03
2.234414174078885480e+03
-1.163250733968518489e+03
-6.291550691415690380e+03
-2.279108410780762370e+03
2.257335983936492994e+03
1.547290157350790651e+03
-2.820924202573456796e+02
7.336496797414265529e+02
6.159772680893022880e+03
6.593145290729035878e+03
-4.585732506200069110e+03
-9.654863147708618271e+03
-1.054072821793205776e+03
1.056693781052580107e+03
-2.420711973083969042e+03
4.819536365781292261e+03
8.951109649019059361e+03
-3.642959083285030601e+02
-5.657169230840907403e+03
-4.875617404451188122e+03
-4.715556636743152012e+03
2.977243729734147564e+03
8.890460668796180471e+03
2.830228552433813434e+02
-3.079646631659708873e+03
3.864096434750561457e+03
-1.110864818221167752e+03
-8.563017640953905357e+03
-2.713542933222847182e+02
4.974639094263876359e+03
-2.297925700713705737e+03
-4.262166383850983038e+03
9.864865567679422611e+02
5.154272355288821018e+03
6.877501037106870172e+03
1.143327234814292979e+03
-6.049115243654927326e+03
-1.558514145742424034e+03
2.590355232663967399e+03
-4.113192999183532265e+03
-3.093680214458492173e+03
7.967115803806931581e+03
5.171919754180264135e+03
-9.068205474682585191e+03
-9.502040509798667699e+03
2.962050347332930414e+03
5.493713212628388646e+03
-3.580813620628904573e+03
-2.737802073542979997e+03
8.743771926877432634e+03
6.940486346157410480e+03
-4.397737572596415703e+03
-8.366070924028985445e+00
8.284164179318704555e+03
-2.254272653837597773e+03
-1.210707732517613294e+04
-4.283740244031595466e+03
1.943215067906691957e+03
-2.273749476830800802e+02
1.123944677189588219e+03
1.756409306991528183e+03
-1.602069981871727805e+03
1.033713793190543839e+02
3.124818891357012944e+03
1.340445986582574960e+03
2.365964009433184856e+03
4.584235030065398860e+03
-1.393506630729029894e+03
-7.153091880869920715e+03
-2.231547129811816376e+03
3.947042264996213817e+03
1.881857910603292112e+03
-2.376047163752254164e+03
-2.558801251016890546e+03
-1.100046588583415996e+03
-6.449828768066901148e+02
-3.150725715358728962e+02
1.259532957312387907e+03
3.729516930000974298e+03
2.940553384362810448e+03
-2.818750480436436192e+03
-4.132933273308350181e+03
3.389410878163321740e+03
4.788929800128508759e+03
-4.326440307950699207e+03
-4.661440400171988585e+03
4.093925947061376974e+03
1.981811497997380684e+03
-3.834562034541237153e+03
2.212773718428293250e+03
4.673477263245419635e+03
-4.868927634657094131e+03
-6.472338106765118027e+03
2.480733262718637434e+03
5.361160366233470995e+03
2.180323479390360717e+03
-3.259544873556208699e+02
-3.273994364472496727e+03
-5.277034974837190930e+03
-4.872217788519267742e+03
-1.232221670689752500e+03
7.710191060467786883e+03
1.160602015650130306e+04
2.236934628996832544e+03
-4.133708550242127785e+03
-2.769594643232886710e+02
-2.948515150744951370e+03
-8.912732183511834592e+03
-1.889576889294128705e+03
5.434625196634682652e+03
4.944951484604476377e+02
-1.224305000702338248e+03
4.799476141248018394e+03
4.030825211073874470e+03
-2.738026786622588133e+03
-5.570041993610236204e+03
-4.650565672368222295e+03
-1.324146758201749435e+03
3.536845290771184864e+03
5.484149388242321038e+03
4.661438790395608521e+03
2.688605835752651728e+03
-2.811583235929176226e+03
-7.516715311857244160e+03
-3.697316914501869178e+03
3.504863035372772629e+03
4.825042872722773609e+03
2.320556039768503524e+03
1.136887115642805313e+01
-3.548810060040364533e+03
-5.435927100501719906e+03
-1.327238144753992856e+03
2.610045304592444609e+03
9.826826166127920033e+02
4.814507472262325791e+02
2.246431987536439010e+03
-1.704253728311856321e+03
-4.803019447041891908e+03
3.024972699898720293e+03
7.887120991400293860e+03
-5.967276188882824499e+02
-4.995104960243214919e+03
1.007862187572334506e+03
1.045855399149995037e+03
-3.295806998968935204e+03
7.655120203052870238e+02
5.053827876684294097e+03
1.086401775355733889e+03
-3.236770862530186150e+03
-4.490457493973695819e+03
-3.357774149047696483e+03
1.922321037810260123e+03
3.384095980592051092e+03
-2.803685729315298886e+03
-3.471859014715643298e+03
2.153331993845343277e+03
5.583498376695432626e+02
-2.031361803973815540e+03
6.116485631607536561e+03
1.241911328756308285e+04
4.568402739749126340e+03
-6.576845580835727560e+03
-8.712557129923774482e+03
-5.165152585960502620e+03
-4.260405247343243900e+03
-4.198831221520945292e+03
2.766896747858380877e+03
9.986222301034238626e+03
4.235748004640170620e+03
-4.992558096868666325e+03
-2.321574428293351502e+03
2.339838470727613640e+03
-1.008198206080117643e+03
-1.901686088807576880e+03
2.047630101532185790e+03
1.469426951571376776e+03
-1.285832806711654030e+03
-7.153293173270113812e+02
6.778522753943274211e+02
1.954206074867236111e+03
2.208003671119082810e+03
-1.697506209772794534e+02
-1.133501915805652288e+03
-8.694931700799321561e+02
-3.278631074064703171e+03
-2.450116956048267184e+03
2.087824441284263685e+03
-5.903148596151200991e+02
-4.329454868759777128e+03
2.848544504134620183e+03
6.368168965120500616e+03
-2.861380209754719544e+03
-3.179762695918161626e+03
8.275520747762400788e+03
4.813306498601145904e+03
-9.513315467259533762e+03
-5.548050577744596922e+03
6.880388284715279951e+03
1.500239524219819316e+02
-9.041709291656157802e+03
3.394350443283380628e+03
1.308929665447892512e+04
-4.109972637616122597e+02
-9.231935213341095732e+03
-8.548887298557905012e+01
1.019299395079236774e+03
-7.200048473504684807e+03
-2.684044006955718942e+03
6.177730408853709378e+03
4.158569063599528818e+03
1.198106406448126336e+03
8.688216660637028781e+02
-2.629594022986908840e+03
-1.395079418595055586e+03
4.020497614066309779e+03
8.253293499679004981e+02
-3.472978152073887941e+03
1.353934055515242790e+03
2.091815259303064977e+03
-5.299303982659114808e+03
-4.803198801408164400e+03
2.919623223882646471e+03
3.112514278712894338e+03
-1.785395189780116425e+03
-6.480877273084339549e+02
3.754025383375808360e+03
2.972050293215946112e+03
-6.575349260259923767e+02
-8.837283440991252519e+02
-9.484957564064602593e+02
-4.321679702726675714e+03
-4.329355514104532631e+03
9.918703261049382718e+02
4.012129205953102883e+03
4.353035820087794491e+03
4.754839739119702244e+03
6.546164439523253122e+02
-5.559246299136100788e+03
-5.270309704327982217e+03
-1.518301342678433912e+03
3.762561316861227283e+02
2.514556899168467226e+03
2.943376662094492531e+03
3.410667983350209624e+02
-2.295617276463138694e+02
-5.463292709128411389e+02
-2.660367191784670467e+03
4.594280110787166649e+01
3.520192636390230291e+03
-1.303712012008746342e+03
-4.400429734739856940e+03
1.391208500387857384e+03
3.407293707731147606e+03
-2.673945875716611340e+02
6.905593327375946728e+02
1.953352074361722998e+03
-1.668801628040849437e+03
-2.371184861186752642e+03
2.018826775854053324e+02
-8.626769803144250659e+01
-3.746045182537452547e+02
4.772696215427153561e+02
-1.442979793147005694e+03
-2.279508388395371639e+03
1.830479167540703202e+03
4.993554838303507495e+03
2.663865375666523050e+03
-1.889168532253261446e+03
-3.483773248869343206e+03
-1.344855768336870824e+03
-5.759361371696701326e+02
-1.672243743166633067e+03
1.842699894108706076e+03
5.056912780995125104e+03
-1.908385069544908447e+03
-7.646515962366247550e+03
1.136518542858387661e+02
6.765882692069920267e+03
2.889189263662079611e+03
1.947114554637253377e+03
3.745476300418731626e+03
-3.357109601255278903e+03
-9.008677225473189537e+03
-3.008864184711127564e+03
1.499961474131229352e+03
-1.358314524802451899e+02
2.135426867084629521e+03
3.617046726875699733e+03
-2.090215549255561200e+03
-3.005472499190067992e+03
4.083275134609546967e+03
4.501718144501364804e+03
-2.069614586979992509e+03
-1.933914444382042802e+03
2.174134043513372944e+03
-1.019362070258350400e+03
-4.459321198851787813e+03
1.977630264663217076e+03
6.324514159681595629e+03
-1.679263310939507164e+03
-6.644984649684944998e+03
-3.542698853751344927e+02
5.939608465876526679e+02
-5.037946233877612940e+03
-3.913220841346374641e+02
6.887625605157633800e+03
2.039454212869442472e+03
-1.019606566096807569e+03
5.312310876486219058e+03
3.754819199230755657e+03
-4.572932376600840144e+03
-3.468472591727765121e+03
-1.577923711506302311e+02
-3.861806028738234090e+03
-3.113538177231356713e+03
3.628666920071324512e+03
3.578343376754403380e+03
-1.079226990049935921e+03
-1.251901250353406567e+03
-5.529649934987918414e+02
-2.011540748904238171e+03
-4.254481234110799051e+02
3.243277202776184822e+03
2.877661789904024317e+03
8.519809471378156331e+02
1.631721210308726768e+03
5.876929657991062186e+02
-3.706206963047232421e+03
-3.076769545231984011e+03
9.828914058707714503e+02
-8.486051361335892125e+02
-2.893086374769289705e+03
1.882047266283292629e+03
3.374536254888103031e+03
-1.145122758914820452e+03
-1.053858097482840549e+03
1.110021570368686525e+03
-5.494794601850129538e+02
1.990451259032043936e+02
1.695558851515558445e+03
-1.181087250396293712e+03
-3.752922457744355142e+02
2.753794532417979099e+03
-1.498580767480737677e+03
-3.031517624666597840e+03
3.612675471985212425e+03
2.218767971879258766e+03
-4.914284398658329337e+03
-1.925276409523757820e+03
2.117446016248045908e+03
-1.291598205231005977e+03
-4.350583407336208666e+02
3.191795074733025558e+03
3.680494343853716259e+02
-1.018985065053170615e+03
1.119554747918095018e+03
-1.313625563447388686e+03
-1.762467423282656682e+03
3.629265489777469611e+03
2.435569308645986439e+03
-3.826702688347800631e+03
-2.010471039849356885e+03
2.124931887717741120e+03
-1.271995303313357226e+03
-3.589380970191184133e+03
1.611493849103557295e+03
4.590729688516661554e+03
4.498813421521478517e+02
-1.676231875418067602e+03
1.714266969394821444e+03
1.588576374752070706e+03
-3.829627613341459437e+03
-4.651525016552251145e+03
6.248298052423462678e+01
1.752659562067816751e+03
8.251784446136596216e+02
2.384768247000906285e+03
3.561062354730296647e+03
8.366723707368646501e+02
-2.959837738252780127e+03
-3.591831468545883581e+03
-2.390207674171503527e+02
2.290607812177737287e+03
3.851291976922572076e+02
-6.345604056343951243e+02
1.233782860972751678e+03
-1.300054382998157507e+03
-5.698659215718657833e+03
-1.838664910357152166e+03
4.578768587786887110e+03
3.367719982730327956e+03
1.057461690109699020e+03
3.551082217460917036e+03
2.791547625940026592e+03
-3.407978648618705392e+03
-5.607360161012526987e+03
-1.736751351206674599e+03
5.286395656535610215e+02
-5.981491176253618960e+02
1.939622926977306463e+02
2.617859201161940291e+03
1.305992649391777150e+03
-2.323351932294877315e+03
-2.491029293846070232e+03
4.046356497017517881e+02
2.531402160283608737e+03
2.391637160121864781e+03
4.302666228957617705e+02
-3.105025258728705353e+02
7.261672556054020333e+02
-1.316274739605315972e+03
-3.556099865904831859e+03
1.450952584953952510e+03
4.820473229303896005e+03
-2.389870852426485271e+03
-6.033480405960547614e+03
8.308425090100352008e+02
2.149934586594658413e+03
-2.409625384847920031e+03
2.092501146433824943e+03
7.152443000052841853e+03
-5.636590146098571950e+02
-7.538823430951811133e+03
-2.815882604623011503e+03
1.666013881989146284e+03
2.077027369058370994e+02
1.477594414848568931e+03
5.652267405429523933e+03
4.257326600106029218e+03
-2.020661682780853880e+03
-3.841394452585886029e+03
-1.175953122002203344e+01
-3.342732413964135674e+01
-4.893786045686861144e+03
-4.283466701404281594e+03
6.898901274090625293e+02
2.424807497046541584e+02
-7.122288814587438992e+02
4.917308441071839297e+03
7.326733433905566926e+03
1.293564762629913275e+03
-2.551305742809861840e+03
-1.138103630396884228e+03
-1.241211969175722061e+03
-2.235786188493574628e+03
-7.466825616405678829e+02
1.172232163514061313e+03
1.242474438496036328e+03
-1.216237393410672894e+03
-3.767581223122430856e+03
-1.558821139240750881e+03
2.032085397872194335e+03
5.036714289402877398e+02
-1.142524845913112870e+02
5.005074299031856754e+03
5.353389373975651324e+03
-2.188569120782199661e+03
-4.923399571753288001e+03
-1.126187764070419234e+03
-1.299059037608494236e+03
-3.532358301299753293e+03
9.015607864014036750e+02
6.584377621120956974e+03
3.362054457449681649e+03
-3.760101233483235774e+03
-3.688702838486094606e+03
4.538246400874508026e+02
-1.950529145456994513e+02
-9.851330429050932480e+02
3.650954069324916873e+03
4.242560808436222942e+03
-2.985079468388929399e+03
-5.411223410089193749e+03
-4.957706830734645678e+02
1.227872570128602092e+03
5.753084448055292341e+02
2.931916840701631827e+03
2.720404582895284420e+03
-1.699528559550874434e+03
-2.810559321514493149e+03
-2.708798870057211730e+02
1.018410914647634854e+03
1.087612410280371705e+03
4.713759832237956289e+02
-1.241346228747380792e+03
-2.397169460811895988e+03
-2.315738240988899634e+03
-7.479191448491368419e+02
2.607625474538084291e+03
4.139283994073513895e+03
1.864227654881848366e+03
-1.134564393554803416e+02
-6.237685663501924864e+02
-1.868941018422218121e+03
-2.039220790456627583e+03
-6.345617198784223092e+02
-4.539906111734806018e+02
-2.677632325128062121e+02
7.477063990537193376e+02
-3.024060561343512532e+00
-2.361993307873576242e+01
2.864373765573714536e+03
2.864239833714386805e+03
-7.831347325890366164e+02
-1.613536740899909091e+03
-9.644503917644746025e+02
-2.722887387683017096e+03
-2.865610506228593749e+03
2.333279433707501482e+01
2.022140599378920115e+03
3.107222516610566799e+03
2.937058530339722893e+03
-2.330266240886878961e+02
-1.941703878045015472e+03
-3.992857069445784077e+02
-1.453935754714722634e+03
-3.143562044186643107e+03
8.688001861323455159e+02
4.407546056921848503e+03
1.193572754067461346e+03
-1.803862156832657320e+03
-5.173129251791968954e+02
-4.635847614593610189e+01
-1.187781322706243373e+03
-7.768626489669863986e+02
8.928054257258359030e+02
1.829034513131812218e+03
1.797383817675375042e+02
-2.927341931309855681e+03
-2.732396150175673029e+03
3.880538390024815953e+02
1.908389625926893814e+03
2.670587086409997937e+03
3.162840822832857612e+03
6.974304491208739591e+02
-1.494645152182016318e+03
-1.714390209837375778e+03
-4.211121081420797054e+03
-3.559264076545394346e+03
4.629939505420674323e+03
6.209679114975825541e+03
-1.930053099844060398e+03
-2.028335819635852431e+03
2.966328022462480021e+03
-2.899174963129987191e+03
-7.524745635238617069e+03
9.497007565895772814e+02
5.220645280063457903e+03
-5.402614075181505768e+02
-9.436302880267496676e+02
2.513371988877814147e+03
7.551358652523866795e+02
1.021332605753149636e+02
2.010948210481410115e+03
2.641529183398392888e+01
-1.180507655794750008e+03
8.365441715026869360e+02
-1.439434159310249470e+03
-4.295143891931543294e+03
-4.787756583414614653e+01
2.765167280720745566e+03
-1.536725525620237704e+03
-2.678396971779001888e+03
1.537493597653092138e+03
1.709841529482409214e+03
-7.419208176924680629e+02
1.005782541573403932e+03
2.661147254857925418e+03
4.111988530695929285e+02
-5.427425069620181830e+02
3.607570207190913152e+02
-8.725904039760458772e+02
-1.679779821416889490e+03
-4.669241400599024132e+02
-1.157896074088155956e+03
-1.873982554895326984e+03
1.192426658165967638e+03
3.786874324794872336e+03
3.108577932813336247e+03
1.446783745951542187e+03
-1.827812722133359102e+03
-4.864679618492242298e+03
-3.430233062751141915e+03
-1.581557745561168076e+03
-1.105880467988983582e+03
3.834324942271724467e+03
7.029743027210664877e+03
-3.132131771972655088e+02
-5.887346602331489521e+03
-7.857934028678778304e+02
2.125408809724027378e+03
-2.734830197901042652e+02
2.811302391933003946e+03
6.714927563146359716e+03
1.849982887530733024e+03
-4.906067275929518473e+03
-5.847524994680464260e+03
-3.515138140239769655e+03
-1.254350157808452877e+03
-5.665381354349806315e+02
-4.371637631376881927e+02
1.693820545398508102e+03
2.783830690115039943e+03
4.266198526210117166e+02
1.897907349221385687e+02
2.997806086852565386e+03
2.506157120001589192e+03
-6.100324591280925688e+02
-1.342862126536786718e+03
-3.082233456203374544e+02
4.309398378535183838e+02
1.889086739863208209e+02
-1.176540629796407529e+03
-1.494686447209020571e+03
-8.977172387434596885e+02
-2.206464999952511789e+03
-2.610301873001229069e+03
5.948751503484415935e+02
2.058583258814579040e+03
5.957366930231267332e+01
1.359796042349930474e+02
2.005557597242135671e+03
1.841706183805742512e+03
1.617295194798212151e+03
2.509108111926721449e+03
1.419402758802100152e+03
-1.514828181895598618e+03
-3.360895430059485989e+03
-3.442770934795859830e+03
-2.394240145183450295e+03
-8.507714412742968761e+02
6.175590739364317869e+02
1.765805321189001461e+03
1.736100152019719417e+03
4.544573448923062529e+02
-5.940475916722069627e+01
6.331283885407574417e+02
7.016901902839745162e+02
2.058186735556404869e+02
2.325214863170655804e+02
3.380843468656368600e+01
-8.200970566613545998e+02
-1.258347489213219433e+03
-8.542045522765733949e+02
-1.807198478408923279e+02
1.980631430826041424e+02
2.292601683463416578e+02
3.536621473064028010e+02
4.889006184412480138e+02
2.314340866635593841e+02
1.552948500536044776e+02
5.804562210975718699e+02
5.874831300150449351e+02
-1.888109760943250137e+01
-5.400414652700695797e+02
-9.756094000876552172e+02
-1.303955919928991307e+03
-1.002187052145082589e+03
-1.518707205434704406e+02
7.711413047937475085e+02
1.318100465761485566e+03
1.027823076975476397e+03
3.526740227966632801e+02
8.173176216428362295e+01
-1.804858734800612865e+02
-5.886902576943191434e+02
-2.678569706577515035e+02
3.494951529397150125e+02
1.511104761891967740e+00
-6.731230666831567078e+02
-5.228331439305685535e+02
-1.337952263200884886e+02
-1.309657040805225847e+02
4.900824194469036854e+01
5.381600837861160471e+02
6.451618647996657501e+02
2.247490511714111392e+02
-1.671461224871920308e+02
-2.538195674329475935e+02
-2.673129872844649526e+02
-3.629285485950723000e+02
-3.921508163335328163e+02
-2.117550977870805013e+02
1.875600961986750690e+02
6.533737660812506647e+02
8.384844828716318261e+02
6.497162898315986013e+02
3.606738794929119649e+02
-9.963632652397787126e+01
-8.794569435304038052e+02
-1.313466144547341855e+03
-8.615287523195470385e+02
-1.856034907707008870e+02
1.172475911790245959e+02
3.846267790916939475e+02
6.734198869570733450e+02
5.350480503235712604e+02
1.422765308969308649e+02
1.754066779953769029e+01
1.126566960746024506e+02
1.202942192317492669e+02
-2.875977442219586422e+01
-2.283242593640754023e+02
-2.847465822413881824e+02
-1.804960853462382033e+02
-1.258580423654906042e+02
-5.715809035144597061e+01
1.695399576361754157e+02
2.099711423082076749e+02
-9.420824106173515133e+01
-2.731339984996968155e+02
-2.071630769567076129e+02
-1.876451510608666524e+02
-4.761232323623467266e+01
2.944176337408979975e+02
3.753642589369019902e+02
1.869317567792337798e+02
1.142118197085661819e+02
7.921000109221528973e+00
-2.127726419563459217e+02
-1.690760927616429967e+02
3.488174958024080752e+01
1.676356713216406291e+01
-6.180976322963266512e+01
-5.395347446590585605e+01
-1.249070461567975485e+02
-1.676340129475043454e+02
-5.001193549569572383e+01
3.583303772901127360e+01
5.718863199942871489e+01
1.240194546884560225e+02
1.034861311042176482e+02
-2.835300691650431659e+01
-2.487995288577496922e+01
1.054514285147126174e+02
7.964013149260887303e+01
-1.047404499559304440e+02
-1.539157448199831038e+02
-4.999659982800923075e+01
-7.940473208843074815e+01
-1.507538218331570761e+02
7.310926512757396267e+01
2.935998880929763573e+02
7.791203610503394827e+01
-1.506021877806057319e+02
-2.339447256554640830e+01
3.221522262319092889e+00
-1.763365437831046734e+02
-9.874268872110005191e+01
1.105509909541810600e+02
8.530658895754804405e+01
1.102027974123116216e+01
3.800152054398096624e+01
5.119547275817797072e+01
4.694176714085819668e+01
-5.346014365665482160e+01
-2.448151306473216096e+02
-2.258241935257986768e+02
-6.336276174207331735e+01
-4.671146085736420162e+01
6.170581629372448873e+01
3.325127560029080200e+02
3.122497667442994498e+02
7.375128102548332265e+01
-1.375694788795032686e+01
-1.275332258824199414e+02
-2.785676019717192844e+02
-1.710100763522826526e+02
-4.196062167968465673e+01
-6.967883266930810748e+01
5.649633630978096477e+01
1.657554989896165694e+02
-4.131193262088380891e+01
-1.250401680674231812e+02
6.569541148969021549e+01
5.492462474300328523e+01
-5.240132420056060880e+01
6.431036950117457707e+01
7.971011167913938777e+01
-1.052195857253442171e+02
-1.214420118850572976e+02
-3.289944213002267048e+01
-1.578921983366496740e+01
8.818122208037381426e+01
1.747326375316305587e+02
5.431559604555842213e+01
-4.675788929349636192e+01
-4.351693907992268606e+01
-8.686473298452135339e+01
-6.275760927470538064e+01
2.922127559505608474e+01
-4.106255887497826507e+01
-1.470619710961481132e+02
-1.383237138516755351e+02
-1.728831427076774503e+02
-1.149834534877564920e+02
1.807243514424027069e+02
2.996024435440643288e+02
1.316271630193059536e+02
8.902593824502508824e+01
8.709825094378621202e+01
-1.019992659221926488e+02
-1.406601245495967589e+02
3.707717637381877296e+01
4.867534417040519656e+01
-5.155331379139830972e+01
-6.940389816578715454e+01
-1.184462126503800050e+02
-1.228511629408157262e+02
1.442624176335524133e+01
5.919749491774361161e+01
-1.715893532125301846e+01
-4.969711036800105575e+01
-1.175341953342012715e+02
-2.034987334180063669e+02
-1.512064667672202916e+02
-2.664394603040319609e+01
1.359114105047912062e+02
3.078786380524064157e+02
2.760695041434429982e+02
1.849969266332197151e+02
2.803102953616306081e+02
1.982483615988091401e+02
-1.355176317668498882e+02
-1.766726778687475985e+02
-8.995225962637336181e+01
-3.292828141691045403e+02
-4.511046202567856653e+02
-2.498489906960906239e+02
-2.639703740501051357e+02
-3.975165558674293038e+02
-2.468107482913126205e+02
-4.557327658221875311e+01
1.804444395391455487e+02
6.550650601905889516e+02
9.983856525851257402e+02
9.377393555020065605e+02
6.903713621226681880e+02
1.748063500841260236e+02
-5.687160968370315004e+02
-9.816072362416783790e+02
-9.554365228453521013e+02
-7.707839529545148025e+02
-3.892602836749188100e+02
2.857928184326343768e+01
1.379989457272139930e+02
1.381016134994491722e+02
2.325663493483854154e+02
2.424866187227954697e+02
2.838593585831163750e+02
4.925523895961104586e+02
5.077506253766834448e+02
2.302966460157677488e+02
1.345155476544440987e+01
-1.305001473591457568e+02
-3.612414657353353391e+02
-4.819048085865190387e+02
-3.548192596557167349e+02
-1.975888098306564586e+02
-1.470863060588500844e+02
-6.107400085710206383e+01
1.102845622182564682e+02
1.603525129038108048e+02
6.179222861788004195e+01
8.021275317897600132e+01
1.817727138913617750e+02
9.393834627568220697e+01
-3.398788050693980267e+01
4.433107965697017150e+00
-1.995054098294830425e+01
-1.332962025706290774e+02
-6.829900914361958542e+01
6.077004363211278815e+01
8.464157614600784996e+01
1.169900556870901340e+02
5.472006010913859342e+01
-1.491508850804702035e+02
-1.584251769589488958e+02
-3.760742512709182961e+01
-1.039194034472097030e+02
-8.891942428136263743e+01
1.053609397207712846e+02
6.374381949905878031e+00
-2.412170234504833672e+02
-1.253386182987839277e+02
8.750052004061599575e+01
9.172992460042074470e+01
1.412503015293929138e+02
2.113530832481749826e+02
1.224673715757535035e+02
5.933105164794180553e+01
2.367401153700242133e+01
-9.034181706238319975e+01
-7.291168270113780636e+01
-3.371051296210207227e+01
-2.558023834094642837e+02
-3.594800252085554462e+02
-1.017375706788259322e+02
4.771432181103497072e+01
1.826042403851151263e+01
1.353142655975919979e+02
2.051458127974003958e+02
7.188843647370774192e+01
1.077286953217282850e+01
4.352321051319482592e+01
7.299337343324292249e+01
1.354855130118967281e+02
1.566464144150467064e+01
-2.736151219341520004e+02
-2.636445686442768874e+02
-6.896460437762613083e+01
-1.205772083406648676e+02
-8.806915552527024715e+01
2.254321843823349809e+02
2.343476541825196477e+02
-8.200283513724016871e+01
-9.940303047976672701e+01
9.396171722253029657e+01
5.368196400210003105e+01
-5.590745514706308228e+01
-7.223030668268362930e+00
9.021687745126753200e+00
-1.041450207441502869e+02
-1.487912650318712338e+02
-9.929939944445916211e+00
1.440405515454285705e+02
1.133460183921650923e+02
-1.950771978303984611e+01
-7.591849815684670943e+01
-8.824738043892284622e+01
-1.055134143851286979e+02
-6.060342596255995318e+01
2.103086273870812661e+01
6.259619514874075463e+01
4.742230068692528278e+01
-2.449139889283729588e+01
-3.856047750998978785e+01
8.580741469958353207e+01
1.365109285553333507e+02
2.922193113045119617e+01
4.904610812596779112e-01
3.155257207347965220e+00
-1.595153759967375322e+02
-2.479452208538205582e+02
-1.212194380283694528e+02
-6.419155795170507872e+01
-6.173182770106038930e+01
8.078189639454069493e+01
1.528572571710679142e+02
8.275437935164657688e+01
1.084222978450052750e+02
9.209835221800618399e+01
-1.000208668111389585e+02
-1.127059756650937459e+02
6.693201023664427396e+01
4.790137613488885648e+01
-3.240079145463516852e+01
6.685397604696015605e+01
4.550687601814850325e+01
-1.526652997986814739e+02
-1.708172216270546073e+02
-7.225525018137460620e+01
-1.001017939541926580e+02
-1.417847340534213458e+02
-1.259823860032635707e+02
-8.248869484913757333e+01
8.141670233671530355e+01
2.449374423012866373e+02
2.325278130423579626e+02
2.119844426739474272e+02
1.789238295424773355e+02
-7.070174870939530365e+01
-2.376180944754504196e+02
-3.966784687486512695e+01
1.465997405983721080e+02
9.643665917162425671e+01
1.743316475997525572e+01
-1.096649742355416350e+02
-3.242685340528354345e+02
-4.393989952138585977e+02
-4.406197492872502721e+02
-3.277639281814088577e+02
-5.442091104981430050e+01
1.282742608712514425e+02
2.228949649642271993e+02
5.923586293268667760e+02
9.314373740429394957e+02
7.351798700289427870e+02
3.476429347557675555e+02
3.981474209441911327e+00
-5.794094302703697394e+02
-1.053621309167246864e+03
-9.231586534464520355e+02
-5.278012979748594944e+02
-1.720060998475906047e+02
1.856613804613821515e+02
3.236058234600602077e+02
2.543968871573205774e+02
2.837653653707071157e+02
2.822750490693713914e+02
1.932485185806565084e+02
2.576686402591747651e+02
2.277508517371092580e+02
-6.439271707530448907e+01
-1.750761762657272413e+02
-1.170838388764711482e+02
-2.160822731084031147e+02
-2.032374173048689556e+02
-4.604678286991853753e+01
-1.329700249598668051e+02
-2.013734219247828037e+02
-2.101934597155379336e+00
1.862487950436650763e+01
-1.027375160835412942e+02
4.954839809495528158e+01
1.589884389811351184e+02
2.864214793207416676e+00
3.000689392597799099e+01
2.326602784258620318e+02
1.894739445792663446e+02
1.275534479675255106e+01
-4.517421052856301600e+01
-8.231963696308491762e+01
-1.457210535324083196e+02
-1.346842037610683462e+02
-3.546633587640468477e+01
6.063422183852674152e+01
2.438050302640805711e+01
-1.135063943269973805e+02
-1.476197131208861606e+02
-5.954632441908191964e+01
-9.380788008613878404e+00
3.721127247674623106e+00
6.085259274447859923e+01
1.072538633643084012e+02
5.745095271452512975e+01
-2.799644973521427005e+01
5.222506515236611691e+00
1.099650836855345801e+02
5.315259813711035264e+01
-1.005077517672270773e+02
-9.821247506369641656e+01
-6.061434056062854836e+01
-1.331350694526788629e+02
-8.093403531983912558e+01
1.035288162680520259e+02
1.163534368250360416e+02
1.432263772426136583e+01
-5.030557891493272038e+00
-3.160179327159233154e+01
-7.132654681424770615e+01
-2.887334716325490547e+01
-1.430997671803363680e+01
-4.955077065031014172e+01
-1.439769805136528014e+01
5.736648623474600583e+00
-4.618954090357995312e+01
-2.137207843039626098e+01
5.400263038800207482e+01
3.493006333982248179e+01
-1.082150505763382498e+01
1.070190530019415931e+01
4.450986224991135742e+01
3.988219015011144819e+01
4.990350323157120016e-01
-3.932545629360354411e+01
-5.151147028139507711e+01
-8.201475819185667149e+01
-1.240975100469142802e+02
-7.274101178068826812e+01
3.901432510112186947e+01
7.398005271471485855e+01
4.092020962956411267e+01
1.453149996037432068e+01
-9.006578003049924064e+00
-4.707569836470296565e+01
-8.715288152313360115e+01
-7.651838809814726972e+01
1.431861713437707806e+01
7.610763721224834910e+01
4.046050754973752817e+01
2.796781399237513455e+01
5.123075249554737098e+01
-1.552797764430789584e+01
-8.925158474804030106e+01
-3.819296742729435579e+01
2.679799546005622801e+01
1.451733835578396992e+01
-1.462855905239244514e+01
-4.687863174321726945e+01
-6.872727169015124105e+01
-4.922366423944111347e+01
-4.593836268736492912e+01
-3.375909312084971248e+01
5.717035024551030631e+01
6.479291665060927130e+01
-8.355456645873455557e+01
-1.210987836469433887e+02
7.413417477941326439e-01
3.117494023431510186e+01
1.764600821445251455e+01
1.182104094861394117e+02
1.476499494127390619e+02
3.637025435421785247e+00
-9.032219492539125838e+01
-5.485771481484386669e+01
-8.832371597172024025e+00
1.802071921301216406e+01
1.824779767321049562e+01
-2.792575298453841981e+01
-7.824866205646225126e+01
-1.291708727477447383e+02
-1.694907577047515304e+02
-1.113180935637726066e+02
9.002228394174416337e-01
3.553833650641027475e+01
2.461435088054130205e+01
1.585675527289902753e+01
-1.617941224642743947e+01
1.127057173335995621e+01
1.184719998213057863e+02
1.596320802296392287e+02
1.541298162419828088e+02
1.932797038559314728e+02
1.430141359581560891e+02
-3.036867491396745322e+01
-1.254879253614796966e+02
-1.355571814716238350e+02
-2.059298159934315606e+02
-3.065646481852080569e+02
-3.537586779556355054e+02
-3.283966958411592714e+02
-2.512366394985467650e+02
-1.905377580589712068e+02
-5.093569139683667402e+01
3.208836050390644345e+02
6.668899353958659049e+02
7.110600713087187614e+02
6.792566702886033454e+02
5.993851441887080682e+02
1.161121971910972235e+02
-5.309773242680386147e+02
-7.938654686599481920e+02
-8.045087912977600126e+02
-7.615785564108094832e+02
-4.197583737700579718e+02
6.514413488142899666e+01
2.405820877063790988e+02
2.347642005320191458e+02
3.018731705096269593e+02
2.889022169546850023e+02
1.959142542349840710e+02
2.155457389508239601e+02
2.391575604406120021e+02
1.231377539347191146e+02
-1.886533305559888163e+01
-9.754353021131973378e+01
-1.318610773508441980e+02
-1.556953731790306961e+02
-2.234071426750512330e+02
-2.818134984199560336e+02
-2.268884251369938454e+02
-1.385097798986759017e+02
-7.158268619293320967e+01
9.646266361659719735e+01
2.788993637624208759e+02
2.193851134391483981e+02
1.039723102083009643e+01
-7.132955807180006502e+01
-4.392519713925092617e+01
-2.156658212383393192e+01
5.104185625179832186e+01
1.491175613244752185e+02
1.102832664511396246e+02
-4.957860602842490039e+01
-1.479557733960409394e+02
-1.292923303449819343e+02
-6.830178012773782825e+01
-1.155159580912970085e+01
8.982321811838184900e+00
-2.620991415653325873e+01
-5.961645117493412727e+01
-4.926949030057311063e+01
-2.094893435073654331e+01
3.974823837861663378e+01
9.964895898631152704e+01
2.176059625551286913e+01
-1.253871072478361270e+02
-1.101376479055287945e+02
-1.868714275802023650e+00
2.061210760475423953e+01
8.075040710004367384e+01
1.943926966315342497e+02
1.037484381304691965e+02
-1.056235790373016101e+02
-1.248963607150433575e+02
-5.406267991729525590e+01
-7.613841528761385291e+01
-6.878138976792632775e+01
-1.164526503562016835e+01
-2.865130355821608532e+01
-5.184877444442743410e+01
-1.145239784924870285e+01
2.892183016720945332e+01
6.936115925229205459e+01
9.535725253032887849e+01
4.719016665738116245e+01
-2.189458880744145830e+01
-6.795662543267960132e+01
-9.155576638613160867e+01
-4.796052976986565142e+01
-3.083308571666452735e+01
-1.031497174106247741e+02
-3.606953437298766119e+01
1.280312369270490080e+02
4.018707378730237423e+01
-8.112173202949094275e+01
8.906869685423478700e+01
1.205979250874112836e+02
-1.443064725519539024e+02
-1.200547215352215318e+02
1.480818437341564788e+02
9.265301736819506573e+01
-9.300408632627090810e+01
-4.680096200850050536e+01
-2.504944589137949151e+01
-1.346336283593235805e+02
-1.436918077206249507e+02
-5.621802972327695613e+01
3.661915557940667298e+01
8.270858526513083575e+01
-1.150020155304679470e+01
-8.081830406288462143e+01
4.343991691386291620e+01
1.133793691860161346e+02
5.304913803244400583e+01
1.110616140973457107e+02
1.522579069952907389e+02
-3.256273256675417827e+01
-1.673424384481183438e+02
-1.166930322028148908e+02
-9.243926795884131309e+01
-7.161499478639322547e+01
6.783075024851937584e+00
-2.035461567428826513e+01
-1.084732183257713132e+02
-9.720059420905596426e+01
-6.737670756063924671e+01
-3.677798433397641986e+01
8.260366100229683184e+01
1.543619214740740233e+02
9.404672534904760539e+01
5.959603257133028364e+01
5.287537606310831961e+01
-1.483330768582872672e+01
-1.267904643075951654e+01
7.808098704483640518e+01
3.837609374619781022e+01
-9.815922596348565321e+01
-1.049312970765277839e+02
-5.813169307398764118e+01
-1.150118010369081816e+02
-1.325345153905938957e+02
-3.345826150191930282e+01
-2.948256222458957865e+01
-1.459764632724698856e+02
-1.365204089479606182e+02
1.133696047235491200e+01
9.208081730866464909e+01
1.080498451841675518e+02
1.600607157695483806e+02
1.717622441512108935e+02
9.035522571513112666e+01
4.176696222275992909e+01
9.377439168142062442e+01
1.436180780852937460e+02
9.833299347373484522e+01
-2.855991624594651057e+01
-1.849433434762352420e+02
-3.165594447061033634e+02
-3.817599033042903329e+02
-3.949302095706178193e+02
-3.751440396928434211e+02
-2.825366112199062059e+02
-1.232019675089648985e+02
6.297259071576549161e+01
3.778413714378949066e+02
8.203958214064559797e+02
1.012821431102637348e+03
7.446730836229731949e+02
3.039373804449925274e+02
-1.808328174820650531e+02
-7.874969083982693974e+02
-1.124191496787716460e+03
-8.389619320297103968e+02
-3.718763159260156499e+02
-1.265073618545754783e+02
1.156414032820563591e+02
3.628531497105389576e+02
3.270033073649169069e+02
1.888567727506960523e+02
2.470970831276795820e+02
3.042731119195775022e+02
1.803162149936814558e+02
6.047284460114538263e+01
1.831507168325687473e+01
-5.821676544505712059e+01
-1.228450595744328666e+02
-1.150079302590089725e+02
-1.633204472722383684e+02
-2.856647167762889126e+02
-2.922923534809831381e+02
-1.737820888523471297e+02
-8.150839434710971432e+01
4.978894377712379082e+01
2.609854769909707670e+02
2.840279664621080542e+02
7.577410705866326168e+01
-2.832418871315246633e+01
4.970594155054268271e+00
-3.613497237185139710e+01
-4.370914440664264333e+01
6.755087377413350680e+01
6.950228545958310633e+01
-5.576498222895603618e+01
-1.021907921402073214e+02
-7.583652880829913556e+01
-4.383121106452449567e+01
-8.784590528222702588e+00
-4.020044510380225944e+01
-9.079312089771326555e+01
-6.036343184814005269e+01
-5.619998989419099900e+01
-5.863003386517544868e+01
1.080531691987918776e+02
2.335331369160920190e+02
8.287699641999107314e+01
-5.343109573473275020e+01
-1.542215130554710001e+01
-6.001530639864868277e+01
-1.377492372907133245e+02
-2.198829812385839944e+01
8.291310004449613302e+01
-2.691237355242181906e+01
-1.451882097042139605e+02
-1.072578006708172040e+02
-5.113250594063497800e+00
6.476635391115776486e+01
9.191071337994276291e+01
9.585251948622767770e+01
4.672889492038240888e+01
-8.427843743036007140e+01
-1.505538576684224097e+02
-4.037928626624402995e+01
6.520478624455735428e+01
5.465226819354685261e+01
4.933733450807500276e+01
9.153473108412239156e+00
-1.311759459030202493e+02
-1.494706168706024414e+02
-7.299374942341858130e+00
9.287047988390364495e+00
-6.914269019697671581e+01
-2.226784605065843081e+00
6.650747120120036016e+01
-2.044406915085665943e+01
-1.863058374288452512e+01
1.472220186274538207e+02
1.509334394308106937e+02
-6.168980844421825793e+01
-1.499027958398066858e+02
-4.256462756155237059e+01
-7.987108541575729248e-01
-4.725764226525943457e+01
1.077310943082482098e+00
6.138068582354269864e+01
-3.899267341067627513e+01
-1.572564818904770334e+02
-1.156218344850869357e+02
-1.457154151854081015e+01
3.703996041997423561e+01
5.687138610821453710e+01
2.747580192302685731e+01
-2.299855891023475607e+01
1.745894283347109166e+00
5.498874460407633080e+01
5.213868306345212034e+01
6.139942165373888372e+01
9.631487216710067401e+01
3.399932916580223008e+01
-1.206338669703004740e+02
-2.078941452275256836e+02
-1.573829542336547433e+02
-7.770233712975888807e+01
-6.788045294218110826e+01
-1.491430582157774509e+01
1.641637080030479581e+02
2.167122113044320315e+02
7.464464433902540108e+00
-1.288262097459348752e+02
-6.208557301652125204e+01
-8.181369319864364797e+01
-1.322741318815459124e+02
3.282638507599416045e+01
1.591203618095932768e+02
4.785978252138569644e+01
-1.328642252966355919e+01
1.922962929250452646e+01
-4.239128401944009994e+01
-2.143549372548135779e+01
1.238756126327930218e+02
6.013401559014698705e+01
-1.218018484094437781e+02
-9.087384952217279022e+01
-4.051417020307471972e+01
-1.543256208751790268e+02
-1.519265826075567531e+02
7.386989168359150426e-01
3.177683128808162394e+00
-1.064659856577557377e+02
-8.060624111005675729e+01
5.975600946678689951e+01
1.477057639048802855e+02
1.232521594717761673e+02
8.043236711970202180e+01
1.404994818710884203e+02
2.105043254044277887e+02
1.341109351768334363e+02
2.527713735195496980e+01
-2.032330545901263719e+00
-1.111172808000329582e+02
-3.430545521593383000e+02
-4.565189249899212882e+02
-3.643867260132980164e+02
-2.352794572574013046e+02
-1.805438314164152871e+02
-1.303610418229689003e+02
5.223228538606684168e+01
3.500596143662270947e+02
5.647300708571201540e+02
6.446053412799560647e+02
6.719868449433583919e+02
4.750408214884328117e+02
-8.760846916659899364e+01
-6.336691766204844498e+02
-7.815962685860599777e+02
-6.856508234273036351e+02
-5.185054041724594072e+02
-2.036964794823494742e+02
1.236674762405100552e+02
2.310431505368520391e+02
2.183107164663995547e+02
2.332013799805007181e+02
2.217426143247843981e+02
1.986626394241640696e+02
2.013880185100135236e+02
1.181038361025539132e+02
-3.207050113833982863e+01
-8.778299173124523236e+01
-1.014152474322156365e+02
-1.743241639680257435e+02
-1.852729123640761486e+02
-8.740221681798321640e+01
-3.043548791833028133e+01
-4.361622311454109990e+01
-3.965084838718779281e+01
-2.677657742580409916e+01
-3.354975315151086335e+01
-3.753548140457340310e+01
-2.412747929656222823e+01
3.250209532735607354e+01
1.240397127970384616e+02
1.474825032186877536e+02
5.839773717655570096e+01
-3.121355622070033675e+01
-3.041246334326393708e+01
-1.064342433249563946e+01
-5.539837686529576644e+01
-7.214067034171499415e+01
1.948317951924903824e+01
3.938993658597880199e+01
-1.068262134804622718e+02
-1.448980346840443190e+02
2.409321661581239837e+00
1.866904186157050560e+01
-8.086322735330381306e+01
-2.392040405091382382e+00
1.107199417766806562e+02
4.136210277469528052e+01
-9.375403490378314331e+00
2.929724562575965052e+01
-8.972945942035867262e+00
-4.578254558196783108e+01
-3.051883822955939252e+01
-9.912947382742248692e+01
-1.188594750882610782e+02
2.078224264228397900e+01
4.903189833119128593e+01
-4.002965433249981686e+01
5.539001473497540218e+01
1.861353255840916745e+02
6.551161896325294265e+01
-8.916072438873739259e+01
-5.973316225254904310e+01
-2.589145805614540308e+01
-9.619895211760969289e+01
-1.237370465334795853e+02
-3.303757815323722014e+01
3.736425177460712632e+01
-4.205403549231568405e+01
-1.230978667358904488e+02
-1.081232544240674365e+01
1.297415532707171621e+02
9.693758822379328421e+01
4.179600645004865100e+01
5.302533900690623625e+01
-1.865089077594578271e+01
-1.239349140284400903e+02
-1.044931446320461674e+02
-2.561137271845133512e+01
3.801006911878347694e+01
8.962935518708655991e+01
5.438830786620835767e+01
-3.475696163445864784e+01
-3.424128712857532264e+01
-1.478870885703655524e+01
-9.990249440669811065e+01
-1.619046841485842663e+02
-9.427672945649872815e+01
-2.553505701157360619e+01
-1.969630381089588411e+01
5.032645154685529576e+01
1.879565021387620618e+02
1.782040860521443335e+02
-1.650200522584280449e+01
-1.267095030355779812e+02
-6.032339537762155146e+01
-2.145378053973864851e+01
-2.274783244319359454e+01
6.375682761100408413e+01
9.412525738368600514e+01
-4.954890258772349654e+01
-1.640805339609973998e+02
-1.394412633501821688e+02
-7.843782262131453820e+01
9.419770848423750564e+00
1.058924578594182151e+02
9.796184248557523233e+01
2.181483889373659935e+01
-2.780615346958268219e+01
-8.600980923219287888e+01
-1.303266216491041973e+02
-6.956555844972081104e+01
3.084775833981318272e+01
5.470419955851673421e+01
3.620427753494118406e+01
5.653767734049845473e+01
8.725871532980595191e+01
4.295418757002501309e+01
-3.811895861056163426e+01
-2.581567871565290773e+01
1.864582791798297734e+01
-6.646475251724287148e+01
-1.594433088850619527e+02
-8.280076440831749096e+01
-2.465973471723522437e+00
-5.071472006760862428e+01
-3.808770628463098262e+01
5.766120235339359823e+01
3.315438676072904656e+00
-1.378117129120341815e+02
-1.020762817394716535e+02
3.793547975677672213e+01
8.183366491702493306e+01
1.074322820216566186e+02
1.690198393705763635e+02
1.055855502655651748e+02
-3.707203636464958407e+01
-3.502472270015260847e+01
3.417720552322006711e+01
1.991117250216333900e+01
3.715689869513246180e+01
4.927095688086325964e+01
-1.338606926531225838e+02
-3.205590953066160864e+02
-3.073455562663122009e+02
-3.109746493352024572e+02
-3.512269191287858803e+02
-1.827495834543376532e+02
6.951445072211821241e+01
2.635041175834131195e+02
5.667260610759210522e+02
8.252072589519534631e+02
7.242013874168039820e+02
3.986112974030279474e+02
-3.513190062218324528e+01
-6.070554323048960441e+02
-9.507601054825040592e+02
-8.299674940028082801e+02
-5.691449974520703563e+02
-2.742707447962663423e+02
1.498967764389434763e+02
4.042033470434641913e+02
3.664028094793976038e+02
3.413306750440053179e+02
3.335946881254266714e+02
2.006787460382822985e+02
9.369084358415905456e+01
3.008698810458514927e+01
-1.043885214395395451e+02
-1.763401681901564757e+02
-1.451900468382957570e+02
-1.553517300531249248e+02
-1.443437776487367330e+02
-5.540023536126277293e+01
-2.656290902736632376e+01
-5.385448280908259022e+01
-4.021726745667738356e+01
-2.061394233962162303e+01
-2.018103693478435190e+01
-1.774109373710609106e+01
6.131359595788177685e+00
8.315713740776178042e+01
1.210967110252539811e+02
4.210655511303652787e+01
1.226451218545734001e+01
6.677587263434965337e+01
1.026297959996650278e+01
-7.213917486040668336e+01
-1.266129582059179448e+01
2.446448478635543822e+00
-1.073295882575383047e+02
-1.199591120409163238e+02
-2.489972852956556082e+01
1.032239305062756785e+01
-1.656135926495247901e+01
-4.379100069501868830e+01
-4.527117345799922532e+01
-3.485774912839987394e+01
-5.996464575685411091e+01
-2.711497650054756292e+01
1.304522172963706055e+02
1.783905677892070401e+02
2.789151044089391007e+01
-4.785975397192272141e+01
-5.376081884827305757e+00
-3.893476269617640639e+01
-8.671667829941517880e+01
-4.246265665928207511e+01
-1.104025315995036394e+01
-4.589448588244327709e+01
-8.468492755452282950e+01
-5.225335335831049832e+01
7.025485109946930606e+01
1.106279857215599804e+02
-2.402903946786994283e+01
-9.483168049300040536e+01
-2.867696973507825930e+01
-3.675598155923636057e+01
-4.140500344721746728e+01
1.091569789241996205e+02
1.734635186758087002e+02
2.153616047572877079e+01
-1.100614855011478284e+02
-1.356329467939871734e+02
-1.334724678689071879e+02
-7.334066366267478543e+01
2.076824502803928851e+01
5.945263317803360081e+01
5.025785034501463144e+01
7.071508343263268159e+00
-4.610698577977635182e+01
-2.423306357896803220e+01
4.362541339340816648e+01
4.809875344217064708e+01
1.835425013181236764e+01
2.075038276277498284e+01
1.424787651956124890e+00
-7.412412461158503163e+01
-1.119400049040514062e+02
-5.801772787123460517e+01
-2.540851514407039247e+01
-5.895711243799066636e+01
-6.287501175399285103e+00
9.748462766611139330e+01
1.752608937687640633e+01
-1.199167159781966916e+02
-5.395290591212624065e+01
1.716454287346941499e+01
-4.981756957268559916e+01
2.810616449311885390e+01
2.142834143831951224e+02
1.605330717850096107e+02
-1.673152812774289089e+01
-6.276760196197364650e+01
-9.556938085361028357e+01
-1.518178044566423921e+02
-1.035298209518309136e+02
-3.591134364687474090e+01
-2.379134461483975826e+01
1.012532892460043854e+00
-1.204437517500096888e+01
-6.433787053569190562e+01
-1.479822250900628688e+01
5.931110477032781603e+01
3.972699380669949321e+00
-4.485882391950976711e+01
2.177583929228108772e+01
5.846419523299476140e+01
4.136348849234926206e+01
9.376532566040513927e+01
1.297452400728216730e+02
2.491470690757786244e+01
-8.062469593705114335e+01
-9.975730655408523262e+01
-1.579240959052314679e+02
-1.730649859821900520e+02
-2.429433214264097529e+00
7.368903209523676878e+01
-9.320614318314922286e+01
-1.131468793470758101e+02
3.493038798122815081e+01
-5.432592822589591464e+01
-1.541413450230413957e+02
8.425933885853905281e+01
2.194287612400756871e+02
3.375686166051136894e+01
-2.625291085107237521e+00
1.185206617984763113e+02
7.519081490841151094e+01
4.105820448413616930e+01
1.089966902747960802e+02
7.136290202575914066e+01
1.011710941915660733e+01
-4.714194521552931860e+01
-2.540543367922783773e+02
-3.629684748006282007e+02
-2.457075222591246302e+02
-2.686719503093027015e+02
-3.608855547627504166e+02
-1.681410555289519380e+02
7.517605596471443619e+01
1.972689399689940331e+02
4.595685703345502588e+02
7.290447566875914163e+02
7.085223946479860615e+02
5.138384615961556392e+02
1.607112386272536071e+02
-3.915790235569440370e+02
-7.843712877756890975e+02
-8.362284595065573285e+02
-7.324866936904303429e+02
-4.523391865083180505e+02
-1.390987439627089373e+01
2.830696213053051906e+02
3.632787064622415869e+02
3.414251749106453531e+02
2.583718565736521668e+02
2.413030753779092379e+02
2.689061939095435605e+02
1.306720838603624486e+02
-2.886691142503850216e+01
-3.812438428922381206e+01
-1.500335975827327673e+02
-3.307325996769429253e+02
-2.305484810028535207e+02
-2.927750659233216979e+01
-2.452952100105568078e+01
-3.869120127787655150e+01
-5.755537303806280036e+00
-5.176228593147562407e+01
-6.552050782347022562e+01
-2.257981108804263926e+01
-2.484592208390847290e+01
3.342932735289488733e+01
1.119441618358871295e+02
4.550300223451951354e+01
2.811400396871559693e+01
1.361520983536738356e+02
8.347649620495485578e+01
-4.416825488809918454e+01
-1.004279899480700067e+00
2.911138700608020713e+00
-9.997953087525684168e+01
-6.487874371457392897e+01
-2.190909362272335059e+01
-1.358440400944578244e+02
-1.658447449689641360e+02
-7.730734488525065728e+01
-5.334879895711807052e+01
1.096821388425078148e+01
1.356343150626193506e+02
1.115056388347060761e+02
1.810303986612800031e+01
1.303192511936937237e+01
-7.509239861294622287e+00
-2.760020994635686620e+01
5.506324147061343410e+01
8.545763645032900513e+01
-1.590553082219810932e+01
-8.496952458550097731e+01
-8.970259614961379668e+01
-8.900925517863691994e+01
-4.558072939877817475e+01
-7.927959843637275128e+00
-4.828688159112394374e+01
-7.657019250359658713e+01
-4.646460537135474311e+01
-8.874906847185110692e+00
7.506430470762656171e+01
1.887793373146901672e+02
1.746579707595325033e+02
1.980810586867480083e+01
-1.237978671209948232e+02
-1.856147806262447943e+02
-1.613256345282308359e+02
-5.420647841666031752e+01
5.304855776304855652e+01
9.136678766481659864e+01
7.993934188320633893e+01
4.588059602884852595e+00
-1.223496566457226038e+02
-1.473742772432447623e+02
-2.345425559763672396e+01
5.466882973877001461e+01
7.294288768189385763e+00
7.589718267897158199e+00
9.810404064750758835e+01
9.243832742707665773e+01
-2.630380227242684299e+01
-4.297009503500947858e+01
5.159514424129265819e+01
1.118984683613734354e+01
-1.552935229528819434e+02
-1.583006906661280198e+02
-2.180026312079497330e+01
-3.577345402990020773e+01
-1.233840807688780217e+02
-2.864077754645172291e+01
9.789515192203185734e+01
4.925714896861425274e+01
1.139359870170858713e+00
6.748675520074385759e+01
8.327526737102024867e+01
1.697491842683065855e+01
-1.082512718932052920e+01
1.163724525217817529e+01
3.764618306357612454e+01
2.744044800520916638e+01
-3.433420276804572779e+01
-9.073004224607433343e+01
-1.383074546011380050e+02
-1.993934558245814515e+02
-1.571541164812559828e+02
-1.879419822395743012e+01
1.668188092318827387e+01
1.901425547875381739e+01
1.351285910091260405e+02
1.507385796733185543e+02
1.579756734822994702e+01
2.930958360104950344e+01
1.135078628127155014e+02
-8.185302455556549006e-01
-1.236849851916816050e+02
-8.050691834467852459e+01
-4.255980317437225580e+01
-2.953455574159275443e+01
1.962529493842603756e+01
5.892034661909667292e+00
-2.428044530776484677e+01
-1.505043963075357816e+01
-9.393214969462751185e+01
-1.329618257175259828e+02
3.890592150636345536e+01
1.087926242406618087e+02
-6.751390249133750388e+01
-1.179644060239298824e+02
-2.167125431769636634e+01
-6.936446199440457860e+01
-9.379758087325009797e+01
7.357161380240313520e+01
1.444155507577210358e+02
6.914946562018168663e+01
1.196815846088890680e+02
2.098201518221478068e+02
1.406927982306650904e+02
7.873633310837087151e+01
8.084129916549878203e+01
-1.001567225962096614e+02
-3.835574520359388089e+02
-4.203323571585100353e+02
-3.070818618576306562e+02
-3.426120118500795684e+02
-3.601435799767702974e+02
-1.339666397486310814e+02
1.288002938304498741e+02
3.145188501032525323e+02
5.970703429680647787e+02
8.659191989086662034e+02
8.096708571783103707e+02
4.079431300192209164e+02
-1.681147733096442494e+02
-6.776879618970898491e+02
-8.561516779623352704e+02
-7.589214095024821063e+02
-5.830612783870489011e+02
-2.463154559614884249e+02
1.681954598363510343e+02
2.877436580569986972e+02
2.051181121505003375e+02
2.664486377293855526e+02
3.393441808831716457e+02
2.623264449624362555e+02
1.831806832805498573e+02
8.997360338274823732e+01
-3.596974138096249618e+01
-5.554955203845692324e+01
-1.223314538562840426e+02
-3.088014071810742394e+02
-2.416923870182798169e+02
-3.715327711269084787e+00
-7.005132639286449603e+01
-1.770415707271175734e+02
5.217808256115371535e+01
1.601658241109934693e+02
-7.453029824405021486e+01
-1.261634539508457635e+02
9.302651972252265011e+01
1.504246079157894656e+02
3.175266209002916895e+01
-1.381314008575945707e+01
5.981586370274484921e+00
-7.619437150073736120e+00
-4.035532369759324922e+01
-1.348451613471493005e+01
7.626212888335852824e+01
8.926372112434609107e+01
-2.183400005703904156e+01
-1.181192648610713718e+02
-1.315360996740808162e+02
-7.959058968487319419e+01
6.016148354002588405e+00
-4.956768817727029486e+00
-9.551892092718131266e+01
-5.491355134238806102e+01
2.976770948117513882e+01
-2.223776581604348479e+01
1.127759025435106999e+01
1.925583408620129831e+02
1.668167294924757300e+02
-4.304072032352775778e+01
-9.974098177996032177e+01
-5.881336264375892142e+01
-7.527177088136211580e+01
-6.081790816750311990e+01
-1.742050101838106002e+01
-6.035490140020490557e+00
1.014598772928489012e+01
-1.785188302917291026e+00
-3.922582035775755571e+01
-2.470681011709562114e+01
-2.556723017772637974e+01
-5.459227538279987613e+01
-6.507893563652771718e+00
2.752176903973481004e+01
8.792968642335772245e+00
8.845990722572037157e+01
1.266525453913607464e+02
-1.979513199632686238e+01
-5.536211724318493310e+01
5.212112390341368950e+01
-1.980945501418263177e+01
-1.314471411794040421e+02
-6.621909131107464930e+01
-7.510618353587841511e+01
-1.741120883634240499e+02
-1.078484915470589129e+02
-2.066528403036398487e+01
-2.762005648991242523e+01
8.015587678168823516e+01
2.010189708505351689e+02
1.151033312507306050e+02
2.910819709051047255e+01
7.421934790421747152e+01
4.673643270859240317e+01
-7.245020354426033293e+01
-1.015878207891011158e+02
-1.084766675046584439e+01
8.288211679056942671e+01
6.523456741024594407e+01
-3.034326338695096581e+01
-6.450818945041177699e+01
-8.668693575316363820e+01
-2.280526336044624998e+02
-3.514803121619427202e+02
-2.655060511914106769e+02
-5.413282181972372342e+01
9.192091129931165483e+01
1.249261762958318798e+02
1.423744966421153038e+02
2.192250921888545179e+02
2.604469511727278928e+02
1.701552585010273901e+02
8.515232165683207199e+01
1.592610114836661523e+02
2.342714211211989550e+02
6.915423560410668813e+01
-1.883815088227220542e+02
-2.144669227230808985e+02
-1.359958916086878844e+02
-2.932010195062100593e+02
-5.240352890115416358e+02
-4.730335030559106144e+02
-2.491998734949665959e+02
-1.345857403041376870e+02
-1.320233823349860245e+02
-4.056753131850206273e+01
2.638167954039647043e+02
4.970638477853268000e+02
3.446562713611416484e+02
2.339883678240453548e+02
5.708808288107602493e+02
7.943492339405497660e+02
5.460382334951384564e+02
3.105283976763529949e+02
2.043448635984001669e+02
-7.818686053907045164e+01
-5.836930262147950543e+02
-1.258184221738315955e+03
-1.550634557554095863e+03
-9.687510077311359282e+02
-6.687719594516003099e+02
-1.375720577795130339e+03
-1.294650646339086279e+03
1.386804795641039334e+02
9.790699319573150206e+02
1.486460574337937260e+03
3.303952180906006106e+03
4.584268228020317110e+03
2.899692460877820849e+03
-1.847742133762828303e+02
-2.140475987968961363e+03
-2.792661804396446769e+03
-2.773156795816874364e+03
-2.105997742470015964e+03
-8.957936316075102923e+02
-2.171442920984488580e+02
-1.073780007422170456e+03
-2.032087823347970016e+03
-8.398759641509468565e+02
1.577574898769803667e+03
2.827785970341406937e+03
2.739854469339410116e+03
1.981957377826656739e+03
8.104943032965302336e+02
1.238704804126961676e+02
2.612362509693154493e+02
4.984426976667114673e+02
5.143983489960760380e+02
-3.262357491998288879e+02
-2.294300115038429794e+03
-3.068407498288521310e+03
-1.379962464384041368e+03
-1.108799931267885164e+01
-4.424478854192397534e+02
-8.412721122283489876e+02
-8.828999300210936099e+02
-9.642666549628044095e+02
5.281940561410816599e+02
3.061322804840025583e+03
3.283962203238419534e+03
1.093170762546960304e+03
-7.355686769347419158e+02
-1.268886848758008909e+03
-1.851868749900966122e+02
2.750006821826274972e+03
4.442302804071892751e+03
1.857782525413976828e+03
-2.696569624006997401e+03
-5.669998253364326047e+03
-6.080920967551828653e+03
-3.159627765802866179e+03
1.404488378081037808e+03
2.560998746277886312e+03
4.632159643343582047e+02
-1.666722076192336601e+02
-9.433568792523010416e+01
-7.223132148173350515e+02
1.883197206315852554e+03
5.477907670214605787e+03
2.647834447071015347e+03
-2.255130251590027910e+03
-4.728156127057907270e+02
3.731247695222150014e+03
3.267071465013066245e+03
4.459149441850692597e+02
-2.084733134212501682e+03
-5.918408362129879606e+03
-9.892740965089413294e+03
-8.802006563647073563e+03
-3.477929730369228878e+02
7.775474357737512037e+03
6.068063122435499281e+03
8.929638642952318150e+01
2.143151007375659276e+02
2.038398770306767346e+03
1.575745172023609939e+03
5.661008493787975567e+03
9.677964840256769094e+03
2.858325513594744280e+03
-6.613175126975371313e+03
-9.035263563303731644e+03
-9.520834595345057096e+03
-7.432685898366174115e+03
6.099616535389627643e+02
4.577303196225296233e+03
1.584679892760628036e+03
2.113005760862763964e+03
4.515642561887078955e+03
1.516977462718673223e+03
-1.128142519003467896e+03
3.462265218697768319e+02
4.780288023717395163e+02
-7.104363770448621835e+02
7.597753357599916626e+02
3.682314851989019644e+03
4.043175444487905224e+03
-3.144783695173590559e+02
-5.764910122346468597e+03
-6.482691495697938080e+03
-3.374862068679112326e+03
3.661945145009743783e+02
3.602859784814745581e+03
2.457481146849546349e+03
-2.079955006779720861e+03
-2.963048475207822321e+03
-2.235020781886662007e+03
-1.867090119481861166e+03
5.116771906198774559e+03
1.138130277231619948e+04
4.224070091171644890e+03
-3.850027005011684651e+03
-1.868207432183916808e+03
-1.292124897576694593e+03
-2.573331184857333483e+03
1.574907631429573939e+03
1.462766460026876302e+03
-4.472920141882029384e+03
-5.751760311386566173e+03
-6.334274922517804043e+03
-5.717350343739108212e+03
4.559073152208110514e+03
1.017456236166404233e+04
2.940730970602767684e+03
2.307782511595116375e+03
6.551352467237504243e+03
-1.876179852779261381e+01
-3.196489936252306507e+03
3.154989776857031302e+03
1.335104904207230163e+02
-7.113050754482160301e+03
-5.391766650818237395e+03
-4.877665703358064093e+03
-4.511655613357455877e+03
3.079242368746634838e+03
4.613612364444355080e+03
1.595072270556352123e+03
6.695173869071905756e+03
5.157604688873962914e+03
-5.136930980483535677e+03
-1.909503261895370315e+03
2.747698810084234537e+03
-7.690846613978431378e+03
-7.867498745778888406e+03
5.940213316783725531e+03
5.401949665927510978e+03
-6.690981815215886854e+02
5.438288411313699726e+03
5.898038506397082529e+03
-3.284620585384321657e+03
-4.998274434485480015e+03
-2.906935213038879283e+03
-2.535447574370477014e+03
2.252601478207124046e+02
-1.831434749483529231e+03
-6.012233038068134192e+03
6.772842129944879161e+02
5.651154974588376717e+03
-5.118471515507403637e+02
1.329735378773715865e+03
9.875469702885511651e+03
4.589422061838660738e+03
-4.337472661954543582e+03
-1.685154593744005979e+03
4.689460837864365317e+02
-3.117959584970135438e+03
-3.806291056157921048e+03
-3.394838882370317606e+03
-2.675888722756873449e+03
1.935212254969372907e+03
2.830923274057073741e+03
-1.587027397873523796e+03
2.683967827604699892e+02
4.819402453064701149e+03
2.238394602883248581e+02
-4.458683657680432589e+03
1.704352759898489239e+03
6.777907052653442406e+03
5.461429790873484080e+02
-5.368913173443133019e+03
-1.526576984163700217e+03
2.472847196611249274e+03
-8.136836474655269740e+02
-2.804910795759746179e+03
1.343368416985887734e+03
2.388869087265516100e+03
-2.927874170028590470e+03
-4.795960399237527781e+03
3.282091793988296331e+02
4.524356710851416210e+03
3.443491334057377117e+03
8.110977803945128244e+02
8.997590655193162945e+01
1.071323172684715708e+01
-2.096930323358414626e+03
-4.450544201085109307e+03
-2.752799516530387336e+03
1.001478286082878185e+03
1.283440807168038873e+03
3.319582501610020131e+02
3.305613600825817684e+03
5.968089425777789984e+03
2.364501187277107874e+03
-2.679553386395465168e+03
-3.140882998978016985e+03
-2.562547082515251986e+03
-3.556748161203012842e+03
-1.847680532739028649e+03
1.946999829232714319e+03
2.043037281202357462e+03
-4.048128825854845445e+02
-7.594433542158709542e+02
3.150675634627285149e+02
1.118009446840988403e+03
1.275429404739076517e+03
-1.197225964163210499e+01
-4.510674603897482484e+02
1.362509305838984346e+03
1.009026463007741540e+03
-7.632560839275066655e+02
1.743991555889057508e+03
3.004637036356304179e+03
-3.150633107342621770e+03
-6.475041416268044486e+03
-1.312619042304798313e+03
1.120716406115469908e+03
-1.325672470044264628e+03
6.886968485269060238e+02
4.217977761580336846e+03
2.044778214504732205e+03
-1.059677188067398447e+03
-1.111293756488288182e+03
-7.971457210786838914e+02
-1.671868613392439329e+02
3.433681860531966379e+01
-1.190703043671221849e+03
1.449438727027192044e+03
6.443828979018521750e+03
3.074913429241890299e+03
-4.672640795779740074e+03
-4.321801621031711875e+03
-1.826827064912581818e+03
-5.180775098280756538e+03
-4.093793826049963172e+03
4.615438605877138798e+03
7.699310490775519611e+03
3.116345566538514959e+03
-1.529243012588771222e+01
-6.485742459225429002e+02
-7.664668009737815737e+02
-1.018285364077479699e+03
-3.780849329434764968e+03
-4.412720295367828840e+03
1.472986793996425604e+03
3.599802937172755264e+03
-1.187405231588021024e+03
1.015296951099591638e+03
7.627935351119178449e+03
2.564639920135073226e+03
-6.081788297213621263e+03
-3.099327315112387168e+03
1.763757609412246666e+03
-1.598596174387188512e+03
-4.695302799772870458e+03
-2.779103668577093686e+03
-1.556660925813792851e+01
2.204627247883827295e+03
2.937056594540146762e+03
3.380128556457116701e+03
6.369542392299033963e+03
4.620503696965476593e+03
-6.139366836406303264e+03
-1.042156555375360767e+04
-1.081047689844134993e+03
4.292860892372035778e+03
-1.135992429418224106e+02
6.522906266148652321e+02
5.308071905897512806e+03
6.967291814087023738e+01
-7.415359814274541350e+03
-3.204662693740446230e+03
3.781107892128111871e+03
1.996172177158480281e+03
-1.582367996545858659e+03
-8.954700629622917631e+02
-3.617488106675575068e+02
3.748368908710651795e+02
3.474051601399698939e+03
3.837521269136952924e+03
1.038031158897868409e+03
6.005712116920176413e+01
-2.066871920025846975e+03
-6.141616520689392928e+03
-3.367700053686273350e+03
3.722338566606690165e+03
3.049716480516296542e+03
-1.684862989664185307e+03
-1.403761765411218221e+03
-8.206858936698122307e+02
-2.199477645023845980e+03
1.235683749393079864e+02
3.051296741151757487e+03
2.700321031436246358e+03
3.389639678911193641e+03
2.587693012280999483e+03
-3.088985268250686659e+03
-3.748178829054370453e+03
1.709877538574264008e+03
-4.150694202486201334e+02
-6.222469427273881593e+03
-1.127293076234219143e+03
5.648365176603511827e+03
9.911516710302324782e+02
-2.885154115766893483e+03
2.739119038254248608e+03
3.669330805268657969e+03
-4.370009733237161527e+03
-6.062034615469860000e+03
1.050923139245971470e+03
3.541185790736263243e+03
3.483127969576755731e+02
1.387852453306748657e+03
4.931602607290074957e+03
2.439568763132628192e+03
-3.296154494540619908e+03
-4.285157701113344956e+03
-1.729672948750540172e+03
-1.209355419885778019e+03
-2.202655884374818470e+03
-3.468774839466636308e+02
3.938965641150218744e+03
4.347754975729144462e+03
-4.710943276412280625e+02
-2.218500157283531280e+03
9.769046633943102051e+02
-5.326791653209318156e+02
-5.402385158085157855e+03
-1.740354796953834921e+03
4.898535745787177802e+03
1.893105046713151978e+03
-1.667257895298682115e+03
3.850157600234262645e+03
5.832698961289494946e+03
-1.479770366815640273e+03
-4.636654341738424591e+03
-1.489876778432340416e+03
-2.513447543276727174e+03
-5.486751126329907493e+03
-2.216362470907432453e+03
3.569386217623967696e+03
4.637808327738021035e+03
2.012388990751930805e+03
4.381610411692651610e+02
5.940342966391026494e+02
-2.170779958064885875e+02
-1.402758441805981874e+03
1.352351947696145658e+02
2.227490459404102239e+03
9.380058722944365854e+02
-1.561254156470041607e+03
-2.475821354232148678e+03
-2.634531386310568450e+03
-1.587944356686209176e+03
5.593300284498723158e+02
1.207523702980742655e+03
1.206633887763216990e+03
2.279061846205311667e+03
1.636998226295230324e+03
-7.922018696519795640e+02
-7.433032062956096979e+02
6.905044810417474537e+02
-5.350146448334260185e+02
-2.254502369446286593e+03
-9.774286381560021937e+02
8.004108617274507651e+02
1.160854321731800241e+02
-5.472572023934280878e+02
9.671659080749259374e+02
1.337684468073432981e+03
-8.968004991475062297e+02
-1.325859184201078733e+03
7.691736989164930947e+02
1.327714322802424249e+03
1.086192945280593904e+03
1.717881867813029430e+03
5.042089473647325804e+02
-1.530682720507516024e+03
-1.831969096657951013e+03
-3.207196617487759795e+03
-3.816114321507484419e+03
8.170456152113522421e+02
3.576500287272626338e+03
2.154313760259101116e+02
2.685509878143137712e+02
3.523730341508771744e+03
4.315831788260879875e+02
-3.153008572473147524e+03
4.687319858199011833e+02
3.223740045141030350e+03
9.922704794029629056e+02
-5.766910742582575722e+02
-7.991616078156341700e+02
-6.807045611788419137e+02
-1.006766387732150974e+03
-4.538331460979966323e+03
-5.208505259515744910e+03
1.456178558219077331e+03
3.259624839543955659e+03
-1.139191832915372061e+03
3.409315106910665691e+03
9.345831316348174369e+03
1.278386836169176377e+03
-5.593586069678347485e+03
-8.151294032712499984e+02
-1.242900661783122814e+03
-6.201981983547062555e+03
-7.940202398317027246e+02
4.692084601320368165e+03
1.041520237206971387e+03
7.721113879553373636e+02
3.063547627819170884e+03
-1.760532032962031280e+03
-4.296152369313294912e+03
-2.253916039564302878e+02
-4.718379111318614036e+02
-1.975000853210019613e+03
2.553177099512619861e+03
4.435858918334203736e+03
8.601336299205009936e+02
-4.540433762260170170e+02
-1.032914942071211271e+03
-2.752379816369473247e+03
-1.200657805091284217e+03
5.630945111614071266e+02
-7.845071553790442920e+01
1.643426791467140447e+03
2.395421736538886307e+03
-1.739203027163113575e+03
-2.189951056448494455e+03
1.898923333232023651e+03
1.043618955234749592e+03
-1.402447796174109499e+03
6.174994179749344312e+02
6.976865191504698487e+02
-1.968877213799155015e+03
-1.202854854291885886e+03
-2.300140315626975394e+02
-1.320259595785804095e+03
1.147602529169057419e+02
1.535507867886566601e+03
6.738799614625289678e+02
2.938126838210891037e+03
4.726859212276126527e+03
-5.771063578283617517e+02
-4.541969890315993325e+03
-2.205443950125402807e+03
-2.507351577302832993e+03
-3.935115396285567840e+03
1.778869460171447599e+03
6.292292442973058314e+03
1.770056679387000941e+03
-1.697777994634313245e+03
7.102178204971372679e+02
6.346454273863578237e+02
-1.935076481023917950e+03
-8.323161104774370642e+02
4.574141617603866621e+02
-2.224748332840484636e+03
-3.978384798650457924e+03
-1.287114238330900662e+03
2.791752432525558106e+03
5.424200120094295016e+03
5.518825567002311800e+03
2.476020527884373678e+03
-1.678355908399866621e+03
-4.196325924675787064e+03
-5.229531873017996077e+03
-4.791260457654892889e+03
-9.618907541332677056e+02
4.088270734780438488e+03
4.427274229089147411e+03
1.151430598009093274e+03
7.793302260513037254e+02
1.018288884403415295e+03
-3.714901571289371077e+03
-6.325050742079761221e+03
-3.203226014369014933e+02
4.318411427944110983e+03
2.302766421295597866e+03
3.320314501142136578e+03
5.783757617896731063e+03
-7.522340632586963238e+02
-7.809110925119116473e+03
-4.557060551246580872e+03
-6.542656315241048333e+02
-1.232119636243964806e+03
2.089257216256816264e+03
5.370429645522930514e+03
9.741418390437258950e+02
-2.552878204135071428e+03
-4.632038220151669066e+02
-7.518761918147033896e+01
-8.779836103513401895e+02
6.334391490547878902e+02
2.612722995072995786e+02
-1.299852787536753340e+03
2.947195607953136687e+02
1.901675136217877480e+03
1.849455170047242746e+03
2.214658292082206117e+03
1.233369233825463880e+02
-4.125102100844732377e+03
-4.319293104442081130e+03
-1.269785483323744984e+03
6.237626678076123881e+02
2.095400898755287017e+03
2.763086585691985874e+03
1.141516824188629926e+03
-6.054094053529715893e+02
-1.378876051410425816e+03
-9.354702233066902863e+02
1.407412890523811029e+03
1.727919334934915241e+03
-1.435721283328607115e+03
-1.966541863659122100e+03
2.067567184099300164e+02
-7.849863178337283642e+00
2.660072906873466536e+02
2.423965565837749637e+03
9.140794891334313661e+02
-2.230417718634782887e+03
-1.707222946863799507e+03
-5.275691402375085772e+02
1.936555987830160177e+02
2.556577024886355048e+03
2.207362775277997116e+03
-1.830193645656154104e+03
-2.976531363204363515e+03
-1.511667775525320621e+03
-1.392585821124715267e+03
3.125907680678132010e+02
4.079271548089750922e+03
4.397275045590719856e+03
1.169760559130051206e+03
-1.000949163721504760e+03
-1.572630095395361195e+03
-2.639812132128955454e+03
-3.479490402265273588e+03
-1.658558339916327441e+03
1.318537930374160396e+03
1.741750537254844858e+03
1.354754092056723039e+03
2.408765439277246969e+03
9.637080260836838761e+02
-2.485402858166404712e+03
-1.923874426204672091e+03
-4.082183262451388117e+01
-9.404438172868627817e+02
3.795616761647538624e+02
3.288614995317235753e+03
1.478945147053590063e+03
-6.039336168322832918e+02
9.384661104160007881e+02
-1.289251236010956063e+02
-2.966377922455946191e+03
-2.096116420336544707e+03
-1.531186475584318714e+03
-2.355726951135721265e+03
7.154959389469889857e+02
4.115907694185982109e+03
3.178350038630668223e+03
1.830876382755338909e+03
5.377826345315344270e+02
-2.643766217531559505e+03
-3.466884209397640916e+03
-9.107724993080616969e+02
1.132646317496894653e+03
2.282172127803776220e+03
1.518091501954297883e+03
-1.862274341076160454e+03
-2.716405612566294622e+03
-6.396070121913863886e+02
-4.340596992408531491e+02
9.409853241743458057e+02
4.744495586227988497e+03
2.908888887124599023e+03
-2.938708089177272541e+03
-3.029453321554893591e+03
-6.694120470061221795e+02
-2.251349444427688923e+03
-2.062242012620275091e+03
2.282615386490455421e+03
3.526630733941311973e+03
1.039337393061175590e+03
7.073929648954726872e+02
1.910934270970117495e+03
2.861915095341332176e+02
-3.026454810843647465e+03
-3.577644142205998833e+03
-1.040634105991225852e+03
7.555911303048530954e+02
6.993299873212049533e+02
1.351070313101122338e+03
1.956410341458016319e+03
-6.487673908333696318e+02
-3.540551049080369921e+03
-1.464964169142983110e+03
2.426931978281331794e+03
2.417047267340067265e+03
1.248076869920923855e+03
1.859263646057024971e+03
-1.634678685153179458e+02
-3.892978917281777285e+03
-2.088206739701544393e+03
1.666980002283391059e+03
1.998927989258353932e+02
-6.126419554552760474e+02
2.161335013899802107e+03
6.483495237894908314e+01
-3.982833876860432156e+03
-9.545078274832957277e+02
