-1.628550000000000000e+05
-1.687490000000000000e+05
-1.747920000000000000e+05
-1.737870000000000000e+05
-1.668770000000000000e+05
-1.629130000000000000e+05
-1.687310000000000000e+05
-1.748520000000000000e+05
-1.739340000000000000e+05
-1.670240000000000000e+05
-1.628790000000000000e+05
-1.686480000000000000e+05
-1.747380000000000000e+05
-1.740110000000000000e+05
-1.670810000000000000e+05
-1.627290000000000000e+05
-1.684110000000000000e+05
-1.747210000000000000e+05
-1.740760000000000000e+05
-1.671690000000000000e+05
-1.627070000000000000e+05
-1.682120000000000000e+05
-1.745720000000000000e+05
-1.741310000000000000e+05
-1.673670000000000000e+05
-1.627720000000000000e+05
-1.682360000000000000e+05
-1.746560000000000000e+05
-1.741820000000000000e+05
-1.674780000000000000e+05
-1.627830000000000000e+05
-1.681370000000000000e+05
-1.746170000000000000e+05
-1.742870000000000000e+05
-1.675490000000000000e+05
-1.626860000000000000e+05
-1.680760000000000000e+05
-1.746740000000000000e+05
-1.744620000000000000e+05
-1.677790000000000000e+05
-1.628580000000000000e+05
-1.680570000000000000e+05
-1.745870000000000000e+05
-1.744940000000000000e+05
-1.679550000000000000e+05
-1.628790000000000000e+05
-1.679850000000000000e+05
-1.746110000000000000e+05
-1.746070000000000000e+05
-1.681190000000000000e+05
-1.627900000000000000e+05
-1.676780000000000000e+05
-1.744040000000000000e+05
-1.745860000000000000e+05
-1.680220000000000000e+05
-1.625160000000000000e+05
-1.675020000000000000e+05
-1.743450000000000000e+05
-1.745760000000000000e+05
-1.681040000000000000e+05
-1.626890000000000000e+05
-1.674590000000000000e+05
-1.742590000000000000e+05
-1.745720000000000000e+05
-1.682610000000000000e+05
-1.626580000000000000e+05
-1.672220000000000000e+05
-1.740120000000000000e+05
-1.746010000000000000e+05
-1.683210000000000000e+05
-1.625890000000000000e+05
-1.671580000000000000e+05
-1.741420000000000000e+05
-1.747520000000000000e+05
-1.684680000000000000e+05
-1.626140000000000000e+05
-1.670190000000000000e+05
-1.740290000000000000e+05
-1.747940000000000000e+05
-1.686030000000000000e+05
-1.626560000000000000e+05
-1.668730000000000000e+05
-1.739540000000000000e+05
-1.748800000000000000e+05
-1.688050000000000000e+05
-1.627890000000000000e+05
-1.668240000000000000e+05
-1.739240000000000000e+05
-1.747550000000000000e+05
-1.684960000000000000e+05
-1.621440000000000000e+05
-1.657570000000000000e+05
-1.728420000000000000e+05
-1.740440000000000000e+05
-1.683650000000000000e+05
-1.625800000000000000e+05
-1.671970000000000000e+05
-1.748050000000000000e+05
-1.759540000000000000e+05
-1.697860000000000000e+05
-1.630900000000000000e+05
-1.665000000000000000e+05
-1.736830000000000000e+05
-1.750000000000000000e+05
-1.690980000000000000e+05
-1.625640000000000000e+05
-1.660220000000000000e+05
-1.733480000000000000e+05
-1.749290000000000000e+05
-1.690920000000000000e+05
-1.626220000000000000e+05
-1.659880000000000000e+05
-1.732780000000000000e+05
-1.748430000000000000e+05
-1.692420000000000000e+05
-1.626820000000000000e+05
-1.659190000000000000e+05
-1.732470000000000000e+05
-1.749110000000000000e+05
-1.693720000000000000e+05
-1.626650000000000000e+05
-1.656810000000000000e+05
-1.730590000000000000e+05
-1.749290000000000000e+05
-1.694600000000000000e+05
-1.626240000000000000e+05
-1.656190000000000000e+05
-1.730340000000000000e+05
-1.749920000000000000e+05
-1.695840000000000000e+05
-1.626640000000000000e+05
-1.654640000000000000e+05
-1.729320000000000000e+05
-1.748970000000000000e+05
-1.696460000000000000e+05
-1.627090000000000000e+05
-1.653610000000000000e+05
-1.728130000000000000e+05
-1.749470000000000000e+05
-1.696790000000000000e+05
-1.627530000000000000e+05
-1.652440000000000000e+05
-1.727170000000000000e+05
-1.749500000000000000e+05
-1.698920000000000000e+05
-1.628190000000000000e+05
-1.650590000000000000e+05
-1.725050000000000000e+05
-1.749090000000000000e+05
-1.699670000000000000e+05
-1.628390000000000000e+05
-1.648910000000000000e+05
-1.723570000000000000e+05
-1.747520000000000000e+05
-1.697920000000000000e+05
-1.626340000000000000e+05
-1.646980000000000000e+05
-1.722540000000000000e+05
-1.748060000000000000e+05
-1.700160000000000000e+05
-1.628420000000000000e+05
-1.645700000000000000e+05
-1.720750000000000000e+05
-1.748080000000000000e+05
-1.702110000000000000e+05
-1.629310000000000000e+05
-1.644570000000000000e+05
-1.719590000000000000e+05
-1.747780000000000000e+05
-1.702160000000000000e+05
-1.629760000000000000e+05
-1.643320000000000000e+05
-1.718390000000000000e+05
-1.747380000000000000e+05
-1.702980000000000000e+05
-1.629060000000000000e+05
-1.641910000000000000e+05
-1.717020000000000000e+05
-1.748090000000000000e+05
-1.704190000000000000e+05
-1.631060000000000000e+05
-1.641900000000000000e+05
-1.717370000000000000e+05
-1.748410000000000000e+05
-1.703760000000000000e+05
-1.630960000000000000e+05
-1.640840000000000000e+05
-1.717020000000000000e+05
-1.749720000000000000e+05
-1.706600000000000000e+05
-1.632060000000000000e+05
-1.638830000000000000e+05
-1.714490000000000000e+05
-1.749640000000000000e+05
-1.707650000000000000e+05
-1.632410000000000000e+05
-1.638160000000000000e+05
-1.713470000000000000e+05
-1.748720000000000000e+05
-1.707870000000000000e+05
-1.633420000000000000e+05
-1.637470000000000000e+05
-1.712090000000000000e+05
-1.748690000000000000e+05
-1.708760000000000000e+05
-1.633260000000000000e+05
-1.635540000000000000e+05
-1.710830000000000000e+05
-1.747700000000000000e+05
-1.708790000000000000e+05
-1.633040000000000000e+05
-1.633590000000000000e+05
-1.708690000000000000e+05
-1.747100000000000000e+05
-1.709840000000000000e+05
-1.633290000000000000e+05
-1.631850000000000000e+05
-1.707290000000000000e+05
-1.746840000000000000e+05
-1.710190000000000000e+05
-1.634220000000000000e+05
-1.630790000000000000e+05
-1.706160000000000000e+05
-1.746790000000000000e+05
-1.709760000000000000e+05
-1.632940000000000000e+05
-1.629440000000000000e+05
-1.704640000000000000e+05
-1.745840000000000000e+05
-1.711260000000000000e+05
-1.635290000000000000e+05
-1.628670000000000000e+05
-1.702570000000000000e+05
-1.745430000000000000e+05
-1.712010000000000000e+05
-1.635750000000000000e+05
-1.626110000000000000e+05
-1.699600000000000000e+05
-1.743280000000000000e+05
-1.710540000000000000e+05
-1.634830000000000000e+05
-1.625640000000000000e+05
-1.698380000000000000e+05
-1.742970000000000000e+05
-1.711640000000000000e+05
-1.635810000000000000e+05
-1.624360000000000000e+05
-1.696820000000000000e+05
-1.742370000000000000e+05
-1.710270000000000000e+05
-1.631260000000000000e+05
-1.615360000000000000e+05
-1.685520000000000000e+05
-1.731110000000000000e+05
-1.701050000000000000e+05
-1.628370000000000000e+05
-5.246900000000000000e+04
-5.460200000000000000e+04
-5.074100000000000000e+04
-4.496100000000000000e+04
-4.641300000000000000e+04
-5.249900000000000000e+04
-5.472500000000000000e+04
-5.080900000000000000e+04
-4.499500000000000000e+04
-4.638400000000000000e+04
-5.252900000000000000e+04
-5.495700000000000000e+04
-5.110300000000000000e+04
-4.521400000000000000e+04
-4.642600000000000000e+04
-5.257700000000000000e+04
-5.499500000000000000e+04
-5.127300000000000000e+04
-4.540900000000000000e+04
-4.652900000000000000e+04
-5.265000000000000000e+04
-5.504600000000000000e+04
-5.140600000000000000e+04
-4.551800000000000000e+04
-4.650400000000000000e+04
-5.258800000000000000e+04
-5.507900000000000000e+04
-5.142700000000000000e+04
-4.542400000000000000e+04
-4.641400000000000000e+04
-5.262800000000000000e+04
-5.527100000000000000e+04
-5.170500000000000000e+04
-4.564500000000000000e+04
-4.641100000000000000e+04
-5.257800000000000000e+04
-5.535000000000000000e+04
-5.185400000000000000e+04
-4.577400000000000000e+04
-4.649400000000000000e+04
-5.263400000000000000e+04
-5.541100000000000000e+04
-5.202900000000000000e+04
-4.593600000000000000e+04
-4.645100000000000000e+04
-5.256600000000000000e+04
-5.537300000000000000e+04
-5.215600000000000000e+04
-4.602200000000000000e+04
-4.645300000000000000e+04
-5.257600000000000000e+04
-5.548900000000000000e+04
-5.239000000000000000e+04
-4.639400000000000000e+04
-4.662300000000000000e+04
-5.279100000000000000e+04
-5.582200000000000000e+04
-5.266600000000000000e+04
-4.655700000000000000e+04
-4.665700000000000000e+04
-5.263100000000000000e+04
-5.577900000000000000e+04
-5.285000000000000000e+04
-4.684900000000000000e+04
-4.694100000000000000e+04
-5.300900000000000000e+04
-5.608100000000000000e+04
-5.308100000000000000e+04
-4.697200000000000000e+04
-4.685000000000000000e+04
-5.284100000000000000e+04
-5.602700000000000000e+04
-5.324100000000000000e+04
-4.720300000000000000e+04
-4.698400000000000000e+04
-5.299100000000000000e+04
-5.620200000000000000e+04
-5.338100000000000000e+04
-4.740100000000000000e+04
-4.706800000000000000e+04
-5.301200000000000000e+04
-5.638400000000000000e+04
-5.361000000000000000e+04
-4.757900000000000000e+04
-4.693700000000000000e+04
-5.277700000000000000e+04
-5.635400000000000000e+04
-5.370600000000000000e+04
-4.774600000000000000e+04
-4.713300000000000000e+04
-5.297500000000000000e+04
-5.636700000000000000e+04
-5.383700000000000000e+04
-4.783100000000000000e+04
-4.704800000000000000e+04
-5.288900000000000000e+04
-5.651600000000000000e+04
-5.400200000000000000e+04
-4.790600000000000000e+04
-4.703200000000000000e+04
-5.282600000000000000e+04
-5.651900000000000000e+04
-5.409100000000000000e+04
-4.807200000000000000e+04
-4.711200000000000000e+04
-5.287400000000000000e+04
-5.664800000000000000e+04
-5.435000000000000000e+04
-4.830600000000000000e+04
-4.728300000000000000e+04
-5.301000000000000000e+04
-5.676600000000000000e+04
-5.444700000000000000e+04
-4.849600000000000000e+04
-4.725400000000000000e+04
-5.289700000000000000e+04
-5.679500000000000000e+04
-5.457600000000000000e+04
-4.858400000000000000e+04
-4.725300000000000000e+04
-5.290700000000000000e+04
-5.673700000000000000e+04
-5.465300000000000000e+04
-4.878800000000000000e+04
-4.747600000000000000e+04
-5.314400000000000000e+04
-5.712200000000000000e+04
-5.497100000000000000e+04
-4.891500000000000000e+04
-4.736200000000000000e+04
-5.289800000000000000e+04
-5.690200000000000000e+04
-5.484700000000000000e+04
-4.885300000000000000e+04
-4.718400000000000000e+04
-5.278700000000000000e+04
-5.676000000000000000e+04
-5.470800000000000000e+04
-4.874600000000000000e+04
-4.699200000000000000e+04
-5.239100000000000000e+04
-5.632000000000000000e+04
-5.432000000000000000e+04
-4.826200000000000000e+04
-4.611100000000000000e+04
-5.142100000000000000e+04
-5.558200000000000000e+04
-5.402200000000000000e+04
-4.856100000000000000e+04
-4.714900000000000000e+04
-5.284200000000000000e+04
-5.696100000000000000e+04
-5.523600000000000000e+04
-4.912400000000000000e+04
-4.679700000000000000e+04
-5.203700000000000000e+04
-5.623900000000000000e+04
-5.455200000000000000e+04
-4.859700000000000000e+04
-4.636400000000000000e+04
-5.170100000000000000e+04
-5.611700000000000000e+04
-5.467000000000000000e+04
-4.884700000000000000e+04
-4.655400000000000000e+04
-5.185100000000000000e+04
-5.623200000000000000e+04
-5.479000000000000000e+04
-4.902400000000000000e+04
-4.658900000000000000e+04
-5.180000000000000000e+04
-5.616900000000000000e+04
-5.478300000000000000e+04
-4.906000000000000000e+04
-4.653200000000000000e+04
-5.166000000000000000e+04
-5.608900000000000000e+04
-5.476700000000000000e+04
-4.902800000000000000e+04
-4.644100000000000000e+04
-5.149800000000000000e+04
-5.589500000000000000e+04
-5.476200000000000000e+04
-4.914300000000000000e+04
-4.647700000000000000e+04
-5.146700000000000000e+04
-5.610500000000000000e+04
-5.502400000000000000e+04
-4.932100000000000000e+04
-4.652100000000000000e+04
-5.147700000000000000e+04
-5.608200000000000000e+04
-5.501100000000000000e+04
-4.929100000000000000e+04
-4.631600000000000000e+04
-5.116400000000000000e+04
-5.579700000000000000e+04
-5.487600000000000000e+04
-4.926700000000000000e+04
-4.624100000000000000e+04
-5.106500000000000000e+04
-5.575100000000000000e+04
-5.485600000000000000e+04
-4.930200000000000000e+04
-4.631400000000000000e+04
-5.100800000000000000e+04
-5.570600000000000000e+04
-5.493400000000000000e+04
-4.936100000000000000e+04
-4.603400000000000000e+04
-5.067800000000000000e+04
-5.556000000000000000e+04
-5.482500000000000000e+04
-4.937700000000000000e+04
-4.606500000000000000e+04
-5.064800000000000000e+04
-5.547800000000000000e+04
-5.484600000000000000e+04
-4.951400000000000000e+04
-4.616200000000000000e+04
-5.064200000000000000e+04
-5.555700000000000000e+04
-5.503600000000000000e+04
-4.964400000000000000e+04
-4.617900000000000000e+04
-5.064500000000000000e+04
-5.553200000000000000e+04
-5.509400000000000000e+04
-4.979700000000000000e+04
-4.629400000000000000e+04
-5.076500000000000000e+04
-5.572600000000000000e+04
-5.534200000000000000e+04
-4.998400000000000000e+04
-4.629900000000000000e+04
-5.059700000000000000e+04
-5.563500000000000000e+04
-5.532900000000000000e+04
-5.001600000000000000e+04
-4.624200000000000000e+04
-5.047200000000000000e+04
-5.554000000000000000e+04
-5.531800000000000000e+04
-5.010800000000000000e+04
-4.625800000000000000e+04
-5.039400000000000000e+04
-5.547700000000000000e+04
-5.547100000000000000e+04
-5.036900000000000000e+04
-4.632600000000000000e+04
-5.032400000000000000e+04
-5.547400000000000000e+04
-5.545600000000000000e+04
-5.025100000000000000e+04
-4.619400000000000000e+04
-5.023400000000000000e+04
-5.537400000000000000e+04
-5.541500000000000000e+04
-5.032000000000000000e+04
-4.614200000000000000e+04
-5.008900000000000000e+04
-5.535200000000000000e+04
-5.546900000000000000e+04
-5.033400000000000000e+04
-4.603900000000000000e+04
-4.994600000000000000e+04
-5.530000000000000000e+04
-5.551300000000000000e+04
-5.039900000000000000e+04
-4.605800000000000000e+04
-4.972200000000000000e+04
-5.502600000000000000e+04
-5.543900000000000000e+04
-5.040000000000000000e+04
-4.606100000000000000e+04
-4.967300000000000000e+04
-5.508900000000000000e+04
-5.547700000000000000e+04
-5.045200000000000000e+04
-4.589100000000000000e+04
-4.954000000000000000e+04
-5.509200000000000000e+04
-5.552500000000000000e+04
-5.052200000000000000e+04
-4.593000000000000000e+04
-4.942700000000000000e+04
-5.500300000000000000e+04
-5.559900000000000000e+04
-5.059400000000000000e+04
-4.594100000000000000e+04
-4.928800000000000000e+04
-5.475800000000000000e+04
-5.550600000000000000e+04
-5.075500000000000000e+04
-4.592700000000000000e+04
-4.917400000000000000e+04
-5.470800000000000000e+04
-5.549100000000000000e+04
-5.059600000000000000e+04
-4.581100000000000000e+04
-4.903400000000000000e+04
-5.471400000000000000e+04
-5.555200000000000000e+04
-5.069500000000000000e+04
-4.566700000000000000e+04
-4.864600000000000000e+04
-5.413600000000000000e+04
-5.490000000000000000e+04
-4.997000000000000000e+04
-4.484600000000000000e+04
-4.781800000000000000e+04
-5.372900000000000000e+04
-5.507000000000000000e+04
-5.094600000000000000e+04
-4.661700000000000000e+04
-4.970500000000000000e+04
-5.521100000000000000e+04
-5.600200000000000000e+04
-5.120200000000000000e+04
-4.593300000000000000e+04
-4.877400000000000000e+04
-5.444100000000000000e+04
-5.545900000000000000e+04
-5.083400000000000000e+04
-4.579400000000000000e+04
-4.853600000000000000e+04
-5.435400000000000000e+04
-5.554700000000000000e+04
-5.099400000000000000e+04
-4.582000000000000000e+04
-4.844100000000000000e+04
-5.422700000000000000e+04
-5.550500000000000000e+04
-5.106500000000000000e+04
-4.584500000000000000e+04
-4.840000000000000000e+04
-5.433400000000000000e+04
-5.568200000000000000e+04
-5.118600000000000000e+04
-4.585900000000000000e+04
-4.838200000000000000e+04
-5.423400000000000000e+04
-5.560900000000000000e+04
-5.124700000000000000e+04
-4.585300000000000000e+04
-4.818700000000000000e+04
-5.397200000000000000e+04
-5.539000000000000000e+04
-5.110700000000000000e+04
-4.573800000000000000e+04
-4.799300000000000000e+04
-5.391200000000000000e+04
-5.548400000000000000e+04
-5.123000000000000000e+04
-4.579100000000000000e+04
-4.794400000000000000e+04
-5.371900000000000000e+04
-5.522800000000000000e+04
-5.112900000000000000e+04
-4.563500000000000000e+04
-4.766800000000000000e+04
-5.354500000000000000e+04
-5.523300000000000000e+04
-5.109100000000000000e+04
-4.558300000000000000e+04
-4.753400000000000000e+04
-5.347200000000000000e+04
-5.530900000000000000e+04
-5.116900000000000000e+04
-4.554400000000000000e+04
-4.742100000000000000e+04
-5.330000000000000000e+04
-5.509100000000000000e+04
-5.105900000000000000e+04
-4.545600000000000000e+04
-4.711600000000000000e+04
-5.308100000000000000e+04
-5.509300000000000000e+04
-5.112600000000000000e+04
-4.547200000000000000e+04
-4.717100000000000000e+04
-5.312900000000000000e+04
-5.512700000000000000e+04
-5.118400000000000000e+04
-4.546100000000000000e+04
-4.699800000000000000e+04
-5.302400000000000000e+04
-5.507500000000000000e+04
-5.133200000000000000e+04
-4.560200000000000000e+04
-4.681300000000000000e+04
-5.269700000000000000e+04
-5.501000000000000000e+04
-5.121600000000000000e+04
-4.536100000000000000e+04
-4.660100000000000000e+04
-5.276100000000000000e+04
-5.510100000000000000e+04
-5.133100000000000000e+04
-4.549100000000000000e+04
-4.676100000000000000e+04
-5.279400000000000000e+04
-5.507700000000000000e+04
-5.142600000000000000e+04
-4.565400000000000000e+04
-4.672600000000000000e+04
-5.266700000000000000e+04
-5.507900000000000000e+04
-5.153900000000000000e+04
-4.569700000000000000e+04
-4.656700000000000000e+04
-5.252500000000000000e+04
-5.508600000000000000e+04
-5.153700000000000000e+04
-4.556400000000000000e+04
-4.632900000000000000e+04
-5.236600000000000000e+04
-5.497500000000000000e+04
-5.146200000000000000e+04
-4.557200000000000000e+04
-4.630200000000000000e+04
-5.225900000000000000e+04
-5.487300000000000000e+04
-5.143100000000000000e+04
-4.548700000000000000e+04
-4.605700000000000000e+04
-5.204000000000000000e+04
-5.474500000000000000e+04
-5.148100000000000000e+04
-4.564100000000000000e+04
-4.613600000000000000e+04
-5.214000000000000000e+04
-5.488200000000000000e+04
-5.155600000000000000e+04
-4.554600000000000000e+04
-4.591200000000000000e+04
-5.197400000000000000e+04
-5.487900000000000000e+04
-5.164700000000000000e+04
-4.565100000000000000e+04
-4.591800000000000000e+04
-5.191100000000000000e+04
-5.481700000000000000e+04
-5.171700000000000000e+04
-4.571200000000000000e+04
-4.576200000000000000e+04
-5.165400000000000000e+04
-5.470400000000000000e+04
-5.174700000000000000e+04
-4.573500000000000000e+04
-4.567900000000000000e+04
-5.156400000000000000e+04
-5.466100000000000000e+04
-5.175100000000000000e+04
-4.571200000000000000e+04
-4.552600000000000000e+04
-5.158300000000000000e+04
-5.473300000000000000e+04
-5.182200000000000000e+04
-4.584900000000000000e+04
-4.561600000000000000e+04
-5.149600000000000000e+04
-5.469100000000000000e+04
-5.176500000000000000e+04
-4.572400000000000000e+04
-4.546000000000000000e+04
-5.135800000000000000e+04
-5.458200000000000000e+04
-5.175400000000000000e+04
-4.568100000000000000e+04
-4.500600000000000000e+04
-5.065700000000000000e+04
-5.378800000000000000e+04
-5.097000000000000000e+04
-4.500500000000000000e+04
-4.460300000000000000e+04
-5.065000000000000000e+04
-5.466900000000000000e+04
-5.263100000000000000e+04
-4.667700000000000000e+04
-4.579800000000000000e+04
-5.141400000000000000e+04
-5.481300000000000000e+04
-5.205500000000000000e+04
-4.587200000000000000e+04
-4.497200000000000000e+04
-5.066700000000000000e+04
-5.424700000000000000e+04
-5.184300000000000000e+04
-4.580200000000000000e+04
-4.476200000000000000e+04
-5.055200000000000000e+04
-5.425700000000000000e+04
-5.199600000000000000e+04
-4.590900000000000000e+04
-4.483600000000000000e+04
-5.066900000000000000e+04
-5.430300000000000000e+04
-5.190400000000000000e+04
-4.588900000000000000e+04
-4.472200000000000000e+04
-5.044400000000000000e+04
-5.415700000000000000e+04
-5.192400000000000000e+04
-4.589600000000000000e+04
-4.454400000000000000e+04
-5.026000000000000000e+04
-5.414100000000000000e+04
-5.198600000000000000e+04
-4.595600000000000000e+04
-4.467200000000000000e+04
-5.030100000000000000e+04
-5.419400000000000000e+04
-5.217400000000000000e+04
-4.620400000000000000e+04
-4.463700000000000000e+04
-5.024100000000000000e+04
-5.416800000000000000e+04
-5.220800000000000000e+04
-4.627900000000000000e+04
-4.460700000000000000e+04
-5.012700000000000000e+04
-5.413400000000000000e+04
-5.217100000000000000e+04
-4.621400000000000000e+04
-4.448900000000000000e+04
-5.007400000000000000e+04
-5.423700000000000000e+04
-5.232400000000000000e+04
-4.638400000000000000e+04
-4.454600000000000000e+04
-4.991100000000000000e+04
-5.405100000000000000e+04
-5.224400000000000000e+04
-4.629100000000000000e+04
-4.435900000000000000e+04
-4.977900000000000000e+04
-5.404100000000000000e+04
-5.233900000000000000e+04
-4.643600000000000000e+04
-4.429500000000000000e+04
-4.961900000000000000e+04
-5.386600000000000000e+04
-5.242600000000000000e+04
-4.661700000000000000e+04
-4.439800000000000000e+04
-4.964800000000000000e+04
-5.401500000000000000e+04
-5.248200000000000000e+04
-4.657600000000000000e+04
-4.425700000000000000e+04
-4.953700000000000000e+04
-5.394500000000000000e+04
-5.250800000000000000e+04
-4.670500000000000000e+04
-4.430100000000000000e+04
-4.961600000000000000e+04
-5.402300000000000000e+04
-5.254600000000000000e+04
-4.676700000000000000e+04
-4.431900000000000000e+04
-4.942600000000000000e+04
-5.385100000000000000e+04
-5.264200000000000000e+04
-4.671500000000000000e+04
-4.406600000000000000e+04
-4.925900000000000000e+04
-5.385400000000000000e+04
-5.267300000000000000e+04
-4.678500000000000000e+04
-4.402200000000000000e+04
-4.912100000000000000e+04
-5.359600000000000000e+04
-5.251900000000000000e+04
-4.687000000000000000e+04
-4.416900000000000000e+04
-4.915600000000000000e+04
-5.383000000000000000e+04
-5.271300000000000000e+04
-4.692700000000000000e+04
-4.388600000000000000e+04
-4.897700000000000000e+04
-5.371100000000000000e+04
-5.266700000000000000e+04
-4.694300000000000000e+04
-4.389600000000000000e+04
-4.884300000000000000e+04
-5.352700000000000000e+04
-5.259800000000000000e+04
-4.698400000000000000e+04
-4.381700000000000000e+04
-4.867100000000000000e+04
-5.351200000000000000e+04
-5.262000000000000000e+04
-4.692700000000000000e+04
-4.368200000000000000e+04
-4.855500000000000000e+04
-5.346200000000000000e+04
-5.267200000000000000e+04
-4.701600000000000000e+04
-4.383700000000000000e+04
-4.868400000000000000e+04
-5.359200000000000000e+04
-5.285600000000000000e+04
-4.730200000000000000e+04
-4.396000000000000000e+04
-4.856000000000000000e+04
-5.350700000000000000e+04
-5.280600000000000000e+04
-4.726900000000000000e+04
-4.387900000000000000e+04
-4.844700000000000000e+04
-5.340600000000000000e+04
-5.289100000000000000e+04
-4.735400000000000000e+04
-4.383500000000000000e+04
-4.832200000000000000e+04
-5.322400000000000000e+04
-5.269000000000000000e+04
-4.743100000000000000e+04
-4.384600000000000000e+04
-4.816400000000000000e+04
-5.318100000000000000e+04
-5.278200000000000000e+04
-4.741700000000000000e+04
-4.370200000000000000e+04
-4.798500000000000000e+04
-5.301900000000000000e+04
-5.268400000000000000e+04
-4.734100000000000000e+04
-4.363400000000000000e+04
-4.790600000000000000e+04
-5.294600000000000000e+04
-5.267100000000000000e+04
-4.755200000000000000e+04
-4.355700000000000000e+04
-4.746500000000000000e+04
-5.251400000000000000e+04
-5.215700000000000000e+04
-4.669900000000000000e+04
-4.278700000000000000e+04
-4.701700000000000000e+04
-5.265900000000000000e+04
-5.323300000000000000e+04
-4.853300000000000000e+04
-4.456600000000000000e+04
-4.841700000000000000e+04
-5.342600000000000000e+04
-5.323700000000000000e+04
-4.790700000000000000e+04
-4.366200000000000000e+04
-4.745500000000000000e+04
-5.266400000000000000e+04
-5.277600000000000000e+04
-4.776600000000000000e+04
-4.352000000000000000e+04
-4.730900000000000000e+04
-5.261400000000000000e+04
-5.295700000000000000e+04
-4.795500000000000000e+04
-4.353100000000000000e+04
-4.720400000000000000e+04
-5.263400000000000000e+04
-5.301100000000000000e+04
-4.806400000000000000e+04
-4.361400000000000000e+04
-4.730300000000000000e+04
-5.264200000000000000e+04
-5.290900000000000000e+04
-4.798100000000000000e+04
-4.344600000000000000e+04
-4.694500000000000000e+04
-5.238400000000000000e+04
-5.291600000000000000e+04
-4.801900000000000000e+04
-4.347900000000000000e+04
-4.699100000000000000e+04
-5.246900000000000000e+04
-5.292100000000000000e+04
-4.795100000000000000e+04
-4.332800000000000000e+04
-4.672900000000000000e+04
-5.222900000000000000e+04
-5.280300000000000000e+04
-4.799100000000000000e+04
-4.336300000000000000e+04
-4.664800000000000000e+04
-5.213700000000000000e+04
-5.276900000000000000e+04
-4.800800000000000000e+04
-4.329100000000000000e+04
-4.644400000000000000e+04
-5.195900000000000000e+04
-5.274300000000000000e+04
-4.802300000000000000e+04
-4.319800000000000000e+04
-4.631700000000000000e+04
-5.184600000000000000e+04
-5.277600000000000000e+04
-4.805500000000000000e+04
-4.315200000000000000e+04
-4.613200000000000000e+04
-5.173400000000000000e+04
-5.264700000000000000e+04
-4.786200000000000000e+04
-4.290700000000000000e+04
-4.585900000000000000e+04
-5.177600000000000000e+04
-5.287200000000000000e+04
-4.823100000000000000e+04
-4.331700000000000000e+04
-4.603400000000000000e+04
-5.167700000000000000e+04
-5.274300000000000000e+04
-4.824900000000000000e+04
-4.329900000000000000e+04
-4.603100000000000000e+04
-5.150800000000000000e+04
-5.252300000000000000e+04
-4.820300000000000000e+04
-4.309900000000000000e+04
-4.574700000000000000e+04
-5.140300000000000000e+04
-5.244400000000000000e+04
-4.814200000000000000e+04
-4.282400000000000000e+04
-4.544900000000000000e+04
-5.133800000000000000e+04
-5.269200000000000000e+04
-4.826900000000000000e+04
-4.291200000000000000e+04
-4.515400000000000000e+04
-5.101700000000000000e+04
-5.267500000000000000e+04
-4.850700000000000000e+04
-4.303200000000000000e+04
-4.533700000000000000e+04
-5.126700000000000000e+04
-5.278600000000000000e+04
-4.837600000000000000e+04
-4.253800000000000000e+04
-4.415900000000000000e+04
-4.938700000000000000e+04
-5.071100000000000000e+04
-4.799600000000000000e+04
-4.336400000000000000e+04
-4.491600000000000000e+04
-5.013700000000000000e+04
-5.176100000000000000e+04
-4.838300000000000000e+04
-4.351600000000000000e+04
-4.489900000000000000e+04
-4.992900000000000000e+04
-5.159200000000000000e+04
-4.866700000000000000e+04
-4.340900000000000000e+04
-4.414600000000000000e+04
-5.033200000000000000e+04
-5.201200000000000000e+04
-4.532900000000000000e+04
-4.050100000000000000e+04
-4.570000000000000000e+04
-5.359600000000000000e+04
-5.470000000000000000e+04
-4.990900000000000000e+04
-4.390700000000000000e+04
-4.441600000000000000e+04
-4.905400000000000000e+04
-5.174000000000000000e+04
-4.854500000000000000e+04
-4.232600000000000000e+04
-4.337100000000000000e+04
-5.056400000000000000e+04
-5.454900000000000000e+04
-5.029800000000000000e+04
-4.449400000000000000e+04
-4.552900000000000000e+04
-5.115300000000000000e+04
-5.318100000000000000e+04
-4.925200000000000000e+04
-4.347900000000000000e+04
-4.353400000000000000e+04
-4.783100000000000000e+04
-5.005400000000000000e+04
-4.866600000000000000e+04
-4.341300000000000000e+04
-4.270600000000000000e+04
-4.614800000000000000e+04
-4.738800000000000000e+04
-4.252200000000000000e+04
-3.502900000000000000e+04
-3.872800000000000000e+04
-4.893100000000000000e+04
-5.054900000000000000e+04
-4.618100000000000000e+04
-4.333100000000000000e+04
-4.484300000000000000e+04
-4.855400000000000000e+04
-5.185400000000000000e+04
-5.064800000000000000e+04
-4.470900000000000000e+04
-4.449100000000000000e+04
-4.848600000000000000e+04
-5.069200000000000000e+04
-4.833300000000000000e+04
-4.121000000000000000e+04
-3.938500000000000000e+04
-4.417200000000000000e+04
-4.853300000000000000e+04
-4.854100000000000000e+04
-4.320400000000000000e+04
-4.102600000000000000e+04
-4.630100000000000000e+04
-5.039400000000000000e+04
-4.708400000000000000e+04
-4.194200000000000000e+04
-4.213700000000000000e+04
-4.670300000000000000e+04
-5.087100000000000000e+04
-4.971800000000000000e+04
-4.241700000000000000e+04
-4.233100000000000000e+04
-4.811300000000000000e+04
-4.956300000000000000e+04
-4.379400000000000000e+04
-3.596700000000000000e+04
-3.640200000000000000e+04
-4.422100000000000000e+04
-4.888000000000000000e+04
-4.727500000000000000e+04
-4.125700000000000000e+04
-3.913200000000000000e+04
-4.153800000000000000e+04
-4.444900000000000000e+04
-4.709600000000000000e+04
-4.471600000000000000e+04
-4.155800000000000000e+04
-4.406500000000000000e+04
-4.516100000000000000e+04
-4.226100000000000000e+04
-3.669900000000000000e+04
-3.666400000000000000e+04
-4.223500000000000000e+04
-4.438300000000000000e+04
-3.840600000000000000e+04
-3.913200000000000000e+04
-4.512100000000000000e+04
-4.608600000000000000e+04
-4.371600000000000000e+04
-3.679400000000000000e+04
-3.021100000000000000e+04
-3.195700000000000000e+04
-4.069400000000000000e+04
-4.411600000000000000e+04
-4.026900000000000000e+04
-3.967000000000000000e+04
-4.037000000000000000e+04
-3.335600000000000000e+04
-2.484500000000000000e+04
-3.006400000000000000e+04
-3.225400000000000000e+04
-3.357700000000000000e+04
-3.553900000000000000e+04
-3.805600000000000000e+04
-3.694800000000000000e+04
-2.494300000000000000e+04
-2.196600000000000000e+04
-3.140600000000000000e+04
-4.029200000000000000e+04
-3.165800000000000000e+04
-2.617700000000000000e+04
-2.445100000000000000e+04
-3.228900000000000000e+04
-3.668200000000000000e+04
-3.741500000000000000e+04
-2.992700000000000000e+04
-3.345700000000000000e+04
-3.744700000000000000e+04
-3.517300000000000000e+04
-3.018900000000000000e+04
-3.317100000000000000e+04
-4.742700000000000000e+04
-4.052400000000000000e+04
-3.857100000000000000e+04
-4.638200000000000000e+04
-3.542300000000000000e+04
-3.247200000000000000e+04
-4.485600000000000000e+04
-5.317300000000000000e+04
-4.511600000000000000e+04
-3.601800000000000000e+04
-3.524000000000000000e+04
-4.608700000000000000e+04
-5.035400000000000000e+04
-4.737600000000000000e+04
-4.145300000000000000e+04
-4.038900000000000000e+04
-4.509900000000000000e+04
-4.814200000000000000e+04
-4.652100000000000000e+04
-4.168200000000000000e+04
-4.009600000000000000e+04
-4.536100000000000000e+04
-5.226600000000000000e+04
-5.067200000000000000e+04
-4.378700000000000000e+04
-4.160700000000000000e+04
-4.651200000000000000e+04
-5.032700000000000000e+04
-4.757700000000000000e+04
-4.098800000000000000e+04
-3.803600000000000000e+04
-4.552000000000000000e+04
-4.976500000000000000e+04
-4.462400000000000000e+04
-3.721900000000000000e+04
-3.965900000000000000e+04
-4.712700000000000000e+04
-5.070900000000000000e+04
-4.751600000000000000e+04
-4.068300000000000000e+04
-3.873200000000000000e+04
-4.202900000000000000e+04
-4.648400000000000000e+04
-4.769700000000000000e+04
-4.066800000000000000e+04
-3.898600000000000000e+04
-4.522900000000000000e+04
-4.868700000000000000e+04
-4.712200000000000000e+04
-4.148100000000000000e+04
-3.909200000000000000e+04
-4.427700000000000000e+04
-4.843400000000000000e+04
-4.678900000000000000e+04
-4.105600000000000000e+04
-3.889400000000000000e+04
-4.402800000000000000e+04
-4.833200000000000000e+04
-4.646100000000000000e+04
-4.000600000000000000e+04
-3.858600000000000000e+04
-4.436800000000000000e+04
-4.887900000000000000e+04
-4.746700000000000000e+04
-4.155400000000000000e+04
-3.903700000000000000e+04
-4.412100000000000000e+04
-4.865900000000000000e+04
-4.755200000000000000e+04
-4.181900000000000000e+04
-3.925000000000000000e+04
-4.444800000000000000e+04
-4.913900000000000000e+04
-4.783900000000000000e+04
-4.214900000000000000e+04
-3.951100000000000000e+04
-4.463200000000000000e+04
-4.930300000000000000e+04
-4.816200000000000000e+04
-4.251000000000000000e+04
-3.984700000000000000e+04
-4.490400000000000000e+04
-4.964500000000000000e+04
-4.859400000000000000e+04
-4.286600000000000000e+04
-3.984400000000000000e+04
-4.449500000000000000e+04
-4.918100000000000000e+04
-4.812100000000000000e+04
-4.225200000000000000e+04
-3.931900000000000000e+04
-4.447200000000000000e+04
-4.975600000000000000e+04
-4.933600000000000000e+04
-4.411100000000000000e+04
-4.120000000000000000e+04
-4.598200000000000000e+04
-5.055200000000000000e+04
-4.956700000000000000e+04
-4.381900000000000000e+04
-4.053000000000000000e+04
-4.527100000000000000e+04
-5.013200000000000000e+04
-4.938000000000000000e+04
-4.387900000000000000e+04
-4.064600000000000000e+04
-4.536000000000000000e+04
-5.028700000000000000e+04
-4.970200000000000000e+04
-4.408600000000000000e+04
-4.077800000000000000e+04
-4.552800000000000000e+04
-5.040500000000000000e+04
-4.981200000000000000e+04
-4.430600000000000000e+04
-4.082200000000000000e+04
-4.532600000000000000e+04
-5.028800000000000000e+04
-4.976000000000000000e+04
-4.417200000000000000e+04
-4.065100000000000000e+04
-4.516900000000000000e+04
-5.020900000000000000e+04
-4.977400000000000000e+04
-4.423700000000000000e+04
-4.068300000000000000e+04
-4.511400000000000000e+04
-5.020700000000000000e+04
-4.982500000000000000e+04
-4.438700000000000000e+04
-4.066200000000000000e+04
-4.506000000000000000e+04
-5.025200000000000000e+04
-4.980700000000000000e+04
-4.431500000000000000e+04
-4.059600000000000000e+04
-4.485200000000000000e+04
-4.998100000000000000e+04
-4.968600000000000000e+04
-4.437200000000000000e+04
-4.046200000000000000e+04
-4.467600000000000000e+04
-4.990700000000000000e+04
-4.964700000000000000e+04
-4.435700000000000000e+04
-4.042400000000000000e+04
-4.459500000000000000e+04
-4.987900000000000000e+04
-4.971600000000000000e+04
-4.431600000000000000e+04
-4.020100000000000000e+04
-4.419400000000000000e+04
-4.949300000000000000e+04
-4.957700000000000000e+04
-4.431100000000000000e+04
-4.034400000000000000e+04
-4.437600000000000000e+04
-4.981400000000000000e+04
-4.994700000000000000e+04
-4.467200000000000000e+04
-4.023800000000000000e+04
-4.392700000000000000e+04
-4.939700000000000000e+04
-4.958400000000000000e+04
-4.422600000000000000e+04
-3.988300000000000000e+04
-4.405300000000000000e+04
-4.965200000000000000e+04
-4.989000000000000000e+04
-4.490200000000000000e+04
-4.046200000000000000e+04
-4.419800000000000000e+04
-4.953700000000000000e+04
-4.982600000000000000e+04
-4.466000000000000000e+04
-4.005100000000000000e+04
-4.375500000000000000e+04
-4.917000000000000000e+04
-4.939400000000000000e+04
-4.429600000000000000e+04
-3.978100000000000000e+04
-4.318800000000000000e+04
-4.858900000000000000e+04
-4.921800000000000000e+04
-4.423100000000000000e+04
-3.940000000000000000e+04
-4.270100000000000000e+04
-4.824700000000000000e+04
-4.888000000000000000e+04
-4.392000000000000000e+04
-3.932400000000000000e+04
-4.283700000000000000e+04
-4.846100000000000000e+04
-4.921700000000000000e+04
-4.432400000000000000e+04
-3.952300000000000000e+04
-4.265600000000000000e+04
-4.814200000000000000e+04
-4.882000000000000000e+04
-4.406600000000000000e+04
-3.931100000000000000e+04
-4.237500000000000000e+04
-4.796800000000000000e+04
-4.899100000000000000e+04
-4.438500000000000000e+04
-3.959800000000000000e+04
-4.274600000000000000e+04
-4.827200000000000000e+04
-4.893600000000000000e+04
-4.420700000000000000e+04
-3.936600000000000000e+04
-4.239100000000000000e+04
-4.815900000000000000e+04
-4.922300000000000000e+04
-4.458200000000000000e+04
-3.976000000000000000e+04
-4.275300000000000000e+04
-4.838900000000000000e+04
-4.939700000000000000e+04
-4.485000000000000000e+04
-3.985000000000000000e+04
-4.260900000000000000e+04
-4.838800000000000000e+04
-4.946900000000000000e+04
-4.496400000000000000e+04
-4.000800000000000000e+04
-4.275900000000000000e+04
-4.842600000000000000e+04
-4.957700000000000000e+04
-4.504600000000000000e+04
-4.004000000000000000e+04
-4.267400000000000000e+04
-4.837700000000000000e+04
-4.963900000000000000e+04
-4.541600000000000000e+04
-4.037200000000000000e+04
-4.289000000000000000e+04
-4.866600000000000000e+04
-4.995200000000000000e+04
-4.554400000000000000e+04
-4.032800000000000000e+04
-4.275000000000000000e+04
-4.854700000000000000e+04
-4.989100000000000000e+04
-4.567100000000000000e+04
-4.051400000000000000e+04
-4.283000000000000000e+04
-4.867400000000000000e+04
-5.010700000000000000e+04
-4.567600000000000000e+04
-4.032400000000000000e+04
-4.258600000000000000e+04
-4.839200000000000000e+04
-4.986200000000000000e+04
-4.558300000000000000e+04
-4.026100000000000000e+04
-4.268500000000000000e+04
-4.911400000000000000e+04
-5.141200000000000000e+04
-4.743100000000000000e+04
-4.185500000000000000e+04
-4.363900000000000000e+04
-4.954400000000000000e+04
-5.117900000000000000e+04
-4.683600000000000000e+04
-4.115100000000000000e+04
-4.316800000000000000e+04
-4.919400000000000000e+04
-5.100300000000000000e+04
-4.690500000000000000e+04
-4.132800000000000000e+04
-4.323600000000000000e+04
-4.926500000000000000e+04
-5.135800000000000000e+04
-4.742200000000000000e+04
-4.173000000000000000e+04
-4.325700000000000000e+04
-4.916200000000000000e+04
-5.131400000000000000e+04
-4.742200000000000000e+04
-4.166900000000000000e+04
-4.320600000000000000e+04
-4.913000000000000000e+04
-5.123700000000000000e+04
-4.738200000000000000e+04
-4.170700000000000000e+04
-4.311700000000000000e+04
-4.907700000000000000e+04
-5.125200000000000000e+04
-4.755200000000000000e+04
-4.193200000000000000e+04
-4.316600000000000000e+04
-4.910300000000000000e+04
-5.135100000000000000e+04
-4.775800000000000000e+04
-4.189800000000000000e+04
-4.298600000000000000e+04
-4.899100000000000000e+04
-5.128200000000000000e+04
-4.751100000000000000e+04
-4.178800000000000000e+04
-4.291700000000000000e+04
-4.893000000000000000e+04
-5.131400000000000000e+04
-4.760700000000000000e+04
-4.181500000000000000e+04
-4.278000000000000000e+04
-4.884200000000000000e+04
-5.143300000000000000e+04
-4.800200000000000000e+04
-4.208600000000000000e+04
-4.282500000000000000e+04
-4.887800000000000000e+04
-5.156900000000000000e+04
-4.806800000000000000e+04
-4.209700000000000000e+04
-4.276400000000000000e+04
-4.874300000000000000e+04
-5.146500000000000000e+04
-4.801600000000000000e+04
-4.199200000000000000e+04
-4.267200000000000000e+04
-4.881400000000000000e+04
-5.149700000000000000e+04
-4.816100000000000000e+04
-4.212200000000000000e+04
-4.249100000000000000e+04
-4.847900000000000000e+04
-5.140200000000000000e+04
-4.811000000000000000e+04
-4.216400000000000000e+04
-4.267600000000000000e+04
-4.870700000000000000e+04
-5.154600000000000000e+04
-4.828200000000000000e+04
-4.226700000000000000e+04
-4.263700000000000000e+04
-4.870400000000000000e+04
-5.162200000000000000e+04
-4.845900000000000000e+04
-4.245600000000000000e+04
-4.261600000000000000e+04
-4.861600000000000000e+04
-5.166500000000000000e+04
-4.856100000000000000e+04
-4.240900000000000000e+04
-4.228800000000000000e+04
-4.836700000000000000e+04
-5.163500000000000000e+04
-4.860000000000000000e+04
-4.258500000000000000e+04
-4.253700000000000000e+04
-4.851700000000000000e+04
-5.167900000000000000e+04
-4.871400000000000000e+04
-4.268400000000000000e+04
-4.253100000000000000e+04
-4.840500000000000000e+04
-5.161700000000000000e+04
-4.867000000000000000e+04
-4.259900000000000000e+04
-4.237200000000000000e+04
-4.823800000000000000e+04
-5.163400000000000000e+04
-4.880300000000000000e+04
-4.279700000000000000e+04
-4.231700000000000000e+04
-4.815600000000000000e+04
-5.159100000000000000e+04
-4.896600000000000000e+04
-4.292000000000000000e+04
-4.227500000000000000e+04
-4.815900000000000000e+04
-5.160600000000000000e+04
-4.898200000000000000e+04
-4.290100000000000000e+04
-4.215400000000000000e+04
-4.804100000000000000e+04
-5.169700000000000000e+04
-4.911100000000000000e+04
-4.298900000000000000e+04
-4.221700000000000000e+04
-4.812100000000000000e+04
-5.174700000000000000e+04
-4.917200000000000000e+04
-4.310200000000000000e+04
-4.216600000000000000e+04
-4.799100000000000000e+04
-5.167300000000000000e+04
-4.913100000000000000e+04
-4.293900000000000000e+04
-4.202100000000000000e+04
-4.787100000000000000e+04
-5.162700000000000000e+04
-4.927800000000000000e+04
-4.314600000000000000e+04
-4.201700000000000000e+04
-4.790400000000000000e+04
-5.170500000000000000e+04
-4.936800000000000000e+04
-4.327400000000000000e+04
-4.198400000000000000e+04
-4.757900000000000000e+04
-5.152400000000000000e+04
-4.944900000000000000e+04
-4.335400000000000000e+04
-4.190100000000000000e+04
-4.756400000000000000e+04
-5.145800000000000000e+04
-4.938900000000000000e+04
-4.342800000000000000e+04
-4.193100000000000000e+04
-4.752900000000000000e+04
-5.145900000000000000e+04
-4.933100000000000000e+04
-4.316100000000000000e+04
-4.132900000000000000e+04
-4.673700000000000000e+04
-5.069700000000000000e+04
-4.873200000000000000e+04
-4.293100000000000000e+04
-4.152800000000000000e+04
-4.777100000000000000e+04
-5.236600000000000000e+04
-5.047000000000000000e+04
-4.437600000000000000e+04
-4.241900000000000000e+04
-4.780400000000000000e+04
-5.184400000000000000e+04
-4.994600000000000000e+04
-4.380400000000000000e+04
-4.175900000000000000e+04
-4.727900000000000000e+04
-5.151200000000000000e+04
-4.985400000000000000e+04
-4.388800000000000000e+04
-4.182600000000000000e+04
-4.728600000000000000e+04
-5.159900000000000000e+04
-4.998200000000000000e+04
-4.407900000000000000e+04
-4.191200000000000000e+04
-4.722500000000000000e+04
-5.154300000000000000e+04
-5.007100000000000000e+04
-4.426600000000000000e+04
-4.195300000000000000e+04
-4.725700000000000000e+04
-5.162100000000000000e+04
-5.013400000000000000e+04
-4.436600000000000000e+04
-4.204600000000000000e+04
-4.727900000000000000e+04
-5.174600000000000000e+04
-5.039600000000000000e+04
-4.440200000000000000e+04
-4.188400000000000000e+04
-4.731900000000000000e+04
-5.181900000000000000e+04
-5.058900000000000000e+04
-4.481000000000000000e+04
-4.223700000000000000e+04
-4.737600000000000000e+04
-5.183200000000000000e+04
-5.059900000000000000e+04
-4.478200000000000000e+04
-4.205300000000000000e+04
-4.717700000000000000e+04
-5.181700000000000000e+04
-5.064600000000000000e+04
-4.491600000000000000e+04
-4.208000000000000000e+04
-4.713200000000000000e+04
-5.175400000000000000e+04
-5.062500000000000000e+04
-4.491400000000000000e+04
-4.206700000000000000e+04
-4.708900000000000000e+04
-5.189400000000000000e+04
-5.073400000000000000e+04
-4.496100000000000000e+04
-4.198400000000000000e+04
-4.710100000000000000e+04
-5.191700000000000000e+04
-5.096500000000000000e+04
-4.522900000000000000e+04
-4.223400000000000000e+04
-4.719100000000000000e+04
-5.196400000000000000e+04
-5.111200000000000000e+04
-4.553400000000000000e+04
-4.241600000000000000e+04
-4.742900000000000000e+04
-5.223200000000000000e+04
-5.144400000000000000e+04
-4.581400000000000000e+04
-4.250600000000000000e+04
-4.741800000000000000e+04
-5.255600000000000000e+04
-5.186800000000000000e+04
-4.630600000000000000e+04
-4.285900000000000000e+04
-4.755200000000000000e+04
-5.249600000000000000e+04
-5.190200000000000000e+04
-4.636100000000000000e+04
-4.290800000000000000e+04
-4.752600000000000000e+04
-5.254700000000000000e+04
-5.211600000000000000e+04
-4.663200000000000000e+04
-4.319200000000000000e+04
-4.778200000000000000e+04
-5.271400000000000000e+04
-5.236100000000000000e+04
-4.708800000000000000e+04
-4.348100000000000000e+04
-4.810100000000000000e+04
-5.314200000000000000e+04
-5.273200000000000000e+04
-4.732700000000000000e+04
-4.364400000000000000e+04
-4.810900000000000000e+04
-5.319200000000000000e+04
-5.279200000000000000e+04
-4.742100000000000000e+04
-4.367100000000000000e+04
-4.811500000000000000e+04
-5.330600000000000000e+04
-5.302700000000000000e+04
-4.771600000000000000e+04
-4.385900000000000000e+04
-4.814800000000000000e+04
-5.335200000000000000e+04
-5.314900000000000000e+04
-4.792200000000000000e+04
-4.405200000000000000e+04
-4.834100000000000000e+04
-5.353900000000000000e+04
-5.343100000000000000e+04
-4.830900000000000000e+04
-4.428900000000000000e+04
-4.836600000000000000e+04
-5.366100000000000000e+04
-5.361000000000000000e+04
-4.851700000000000000e+04
-4.444100000000000000e+04
-4.844700000000000000e+04
-5.374500000000000000e+04
-5.389000000000000000e+04
-4.888200000000000000e+04
-4.474200000000000000e+04
-4.868100000000000000e+04
-5.409300000000000000e+04
-5.427000000000000000e+04
-4.914000000000000000e+04
-4.488600000000000000e+04
-4.874700000000000000e+04
-5.408700000000000000e+04
-5.439800000000000000e+04
-4.945900000000000000e+04
-4.513900000000000000e+04
-4.895200000000000000e+04
-5.445100000000000000e+04
-5.484500000000000000e+04
-4.993800000000000000e+04
-4.560100000000000000e+04
-4.923200000000000000e+04
-5.470700000000000000e+04
-5.512100000000000000e+04
-5.015200000000000000e+04
-4.561200000000000000e+04
-4.928200000000000000e+04
-5.483800000000000000e+04
-5.545400000000000000e+04
-5.064400000000000000e+04
-4.607400000000000000e+04
-4.948600000000000000e+04
-5.503900000000000000e+04
-5.552400000000000000e+04
-5.045900000000000000e+04
-4.561900000000000000e+04
-4.883500000000000000e+04
-5.429900000000000000e+04
-5.494200000000000000e+04
-5.044900000000000000e+04
-4.654200000000000000e+04
-5.054700000000000000e+04
-5.647000000000000000e+04
-5.692100000000000000e+04
-5.188000000000000000e+04
-4.690000000000000000e+04
-4.993400000000000000e+04
-5.545100000000000000e+04
-5.630900000000000000e+04
-5.150400000000000000e+04
-4.660400000000000000e+04
-4.977700000000000000e+04
-5.552500000000000000e+04
-5.656600000000000000e+04
-5.194400000000000000e+04
-4.700100000000000000e+04
-5.007600000000000000e+04
-5.590500000000000000e+04
-5.689900000000000000e+04
-5.226900000000000000e+04
-4.732300000000000000e+04
-5.026500000000000000e+04
-5.609600000000000000e+04
-5.744100000000000000e+04
-5.285700000000000000e+04
-4.781200000000000000e+04
-5.052100000000000000e+04
-5.624400000000000000e+04
-5.744800000000000000e+04
-5.273400000000000000e+04
-4.758200000000000000e+04
-5.039700000000000000e+04
-5.649200000000000000e+04
-5.776400000000000000e+04
-5.341900000000000000e+04
-4.835200000000000000e+04
-5.087700000000000000e+04
-5.665300000000000000e+04
-5.803100000000000000e+04
-5.370400000000000000e+04
-4.856900000000000000e+04
-5.114100000000000000e+04
-5.689900000000000000e+04
-5.820900000000000000e+04
-5.385600000000000000e+04
-4.873700000000000000e+04
-5.116600000000000000e+04
-5.654800000000000000e+04
-5.739600000000000000e+04
-5.255400000000000000e+04
-4.741400000000000000e+04
-5.006800000000000000e+04
-5.486500000000000000e+04
-5.545600000000000000e+04
-5.238800000000000000e+04
-5.040100000000000000e+04
-5.367100000000000000e+04
-5.923700000000000000e+04
-6.019300000000000000e+04
-5.552900000000000000e+04
-4.965300000000000000e+04
-5.180700000000000000e+04
-5.748700000000000000e+04
-5.838600000000000000e+04
-5.317000000000000000e+04
-4.773400000000000000e+04
-5.067000000000000000e+04
-5.686100000000000000e+04
-5.846800000000000000e+04
-5.370600000000000000e+04
-4.559600000000000000e+04
-4.626600000000000000e+04
-5.436400000000000000e+04
-6.015300000000000000e+04
-5.675900000000000000e+04
-5.097500000000000000e+04
-5.109200000000000000e+04
-5.571700000000000000e+04
-5.853300000000000000e+04
-5.557000000000000000e+04
-4.909000000000000000e+04
-4.786100000000000000e+04
-5.054700000000000000e+04
-4.816300000000000000e+04
-3.967200000000000000e+04
-3.258100000000000000e+04
-3.714600000000000000e+04
-4.693600000000000000e+04
-5.929900000000000000e+04
-6.238800000000000000e+04
-5.249600000000000000e+04
-4.614800000000000000e+04
-4.311100000000000000e+04
-3.767600000000000000e+04
-3.905300000000000000e+04
-4.668000000000000000e+04
-5.057100000000000000e+04
-5.319900000000000000e+04
-4.418700000000000000e+04
-3.177400000000000000e+04
-3.258400000000000000e+04
-3.685400000000000000e+04
-4.227600000000000000e+04
-4.925900000000000000e+04
-4.749400000000000000e+04
-3.396800000000000000e+04
-3.640100000000000000e+04
-4.428100000000000000e+04
-4.179200000000000000e+04
-4.126100000000000000e+04
-3.533400000000000000e+04
-3.438700000000000000e+04
-4.430600000000000000e+04
-5.120700000000000000e+04
-3.570600000000000000e+04
-2.672600000000000000e+04
-3.393500000000000000e+04
-3.697200000000000000e+04
-4.697500000000000000e+04
-4.394100000000000000e+04
-4.176900000000000000e+04
-4.044200000000000000e+04
-4.129400000000000000e+04
-4.197000000000000000e+04
-5.066700000000000000e+04
-5.132400000000000000e+04
-3.796300000000000000e+04
-4.151900000000000000e+04
-5.849200000000000000e+04
-5.776200000000000000e+04
-4.393600000000000000e+04
-3.700300000000000000e+04
-4.379200000000000000e+04
-5.952400000000000000e+04
-5.644800000000000000e+04
-4.560200000000000000e+04
-4.532000000000000000e+04
-5.355400000000000000e+04
-5.671600000000000000e+04
-5.257100000000000000e+04
-4.396400000000000000e+04
-4.662600000000000000e+04
-5.429600000000000000e+04
-5.690600000000000000e+04
-5.439100000000000000e+04
-4.837400000000000000e+04
-4.812600000000000000e+04
-5.396700000000000000e+04
-5.685100000000000000e+04
-5.305500000000000000e+04
-4.707700000000000000e+04
-4.706100000000000000e+04
-5.305700000000000000e+04
-5.671600000000000000e+04
-5.357200000000000000e+04
-4.694400000000000000e+04
-4.601600000000000000e+04
-5.052700000000000000e+04
-5.587400000000000000e+04
-5.487200000000000000e+04
-4.823200000000000000e+04
-4.694800000000000000e+04
-5.205700000000000000e+04
-5.477900000000000000e+04
-5.320000000000000000e+04
-4.784200000000000000e+04
-4.770100000000000000e+04
-5.387400000000000000e+04
-5.715400000000000000e+04
-5.402100000000000000e+04
-4.739600000000000000e+04
-4.571800000000000000e+04
-5.213400000000000000e+04
-5.763600000000000000e+04
-5.477100000000000000e+04
-4.925900000000000000e+04
-4.875400000000000000e+04
-5.436900000000000000e+04
-5.776900000000000000e+04
-5.508900000000000000e+04
-4.880200000000000000e+04
-4.785200000000000000e+04
-5.360500000000000000e+04
-5.703700000000000000e+04
-5.445300000000000000e+04
-4.848700000000000000e+04
-4.762800000000000000e+04
-5.326000000000000000e+04
-5.706400000000000000e+04
-5.508500000000000000e+04
-4.913900000000000000e+04
-4.816900000000000000e+04
-5.401900000000000000e+04
-5.779400000000000000e+04
-5.551400000000000000e+04
-4.952900000000000000e+04
-4.852000000000000000e+04
-5.451800000000000000e+04
-5.860500000000000000e+04
-5.614600000000000000e+04
-4.990700000000000000e+04
-4.977000000000000000e+04
-5.572100000000000000e+04
-5.951100000000000000e+04
-5.744200000000000000e+04
-5.156100000000000000e+04
-5.026100000000000000e+04
-5.604600000000000000e+04
-5.992800000000000000e+04
-5.773000000000000000e+04
-5.166900000000000000e+04
-5.018800000000000000e+04
-5.588500000000000000e+04
-5.986400000000000000e+04
-5.790400000000000000e+04
-5.198900000000000000e+04
-5.053400000000000000e+04
-5.620200000000000000e+04
-6.027600000000000000e+04
-5.823200000000000000e+04
-5.225300000000000000e+04
-5.066600000000000000e+04
-5.640900000000000000e+04
-6.050300000000000000e+04
-5.876400000000000000e+04
-5.288200000000000000e+04
-5.104500000000000000e+04
-5.666400000000000000e+04
-6.092400000000000000e+04
-5.918700000000000000e+04
-5.318300000000000000e+04
-5.132600000000000000e+04
-5.686100000000000000e+04
-6.114000000000000000e+04
-5.953000000000000000e+04
-5.372900000000000000e+04
-5.162400000000000000e+04
-5.708600000000000000e+04
-6.160900000000000000e+04
-6.008400000000000000e+04
-5.410400000000000000e+04
-5.197600000000000000e+04
-5.734500000000000000e+04
-6.175400000000000000e+04
-6.031100000000000000e+04
-5.446600000000000000e+04
-5.217500000000000000e+04
-5.753900000000000000e+04
-6.208700000000000000e+04
-6.058700000000000000e+04
-5.465500000000000000e+04
-5.226600000000000000e+04
-5.752400000000000000e+04
-6.197400000000000000e+04
-6.058600000000000000e+04
-5.482600000000000000e+04
-5.240200000000000000e+04
-5.760400000000000000e+04
-6.214700000000000000e+04
-6.072900000000000000e+04
-5.488000000000000000e+04
-5.232800000000000000e+04
-5.741500000000000000e+04
-6.199700000000000000e+04
-6.082600000000000000e+04
-5.510800000000000000e+04
-5.240200000000000000e+04
-5.753700000000000000e+04
-6.212100000000000000e+04
-6.085600000000000000e+04
-5.514400000000000000e+04
-5.224200000000000000e+04
-5.729100000000000000e+04
-6.204400000000000000e+04
-6.119600000000000000e+04
-5.544500000000000000e+04
-5.246100000000000000e+04
-5.740100000000000000e+04
-6.202500000000000000e+04
-6.105300000000000000e+04
-5.532200000000000000e+04
-5.229100000000000000e+04
-5.717700000000000000e+04
-6.197100000000000000e+04
-6.095100000000000000e+04
-5.508200000000000000e+04
-5.210400000000000000e+04
-5.712900000000000000e+04
-6.198200000000000000e+04
-6.102800000000000000e+04
-5.514900000000000000e+04
-5.175400000000000000e+04
-5.657500000000000000e+04
-6.174900000000000000e+04
-6.104100000000000000e+04
-5.535800000000000000e+04
-5.190100000000000000e+04
-5.658500000000000000e+04
-6.152600000000000000e+04
-6.087700000000000000e+04
-5.527300000000000000e+04
-5.178100000000000000e+04
-5.641400000000000000e+04
-6.140400000000000000e+04
-6.074500000000000000e+04
-5.525400000000000000e+04
-5.177900000000000000e+04
-5.630100000000000000e+04
-6.143200000000000000e+04
-6.110200000000000000e+04
-5.557600000000000000e+04
-5.173900000000000000e+04
-5.624700000000000000e+04
-6.142200000000000000e+04
-6.099900000000000000e+04
-5.542400000000000000e+04
-5.168200000000000000e+04
-5.618100000000000000e+04
-6.130700000000000000e+04
-6.094700000000000000e+04
-5.549600000000000000e+04
-5.168900000000000000e+04
-5.617500000000000000e+04
-6.138600000000000000e+04
-6.091400000000000000e+04
-5.528600000000000000e+04
-5.120900000000000000e+04
-5.532900000000000000e+04
-6.053300000000000000e+04
-6.046600000000000000e+04
-5.539400000000000000e+04
-5.206300000000000000e+04
-5.684100000000000000e+04
-6.240800000000000000e+04
-6.220600000000000000e+04
-5.663400000000000000e+04
-5.243100000000000000e+04
-5.636300000000000000e+04
-6.155700000000000000e+04
-6.149200000000000000e+04
-5.617200000000000000e+04
-5.194300000000000000e+04
-5.604100000000000000e+04
-6.164100000000000000e+04
-6.159100000000000000e+04
-5.623700000000000000e+04
-5.212000000000000000e+04
-5.614900000000000000e+04
-6.150100000000000000e+04
-6.175000000000000000e+04
-5.644700000000000000e+04
-5.206000000000000000e+04
-5.611200000000000000e+04
-6.163800000000000000e+04
-6.183700000000000000e+04
-5.651200000000000000e+04
-5.214400000000000000e+04
-5.600500000000000000e+04
-6.161600000000000000e+04
-6.194200000000000000e+04
-5.676400000000000000e+04
-5.223400000000000000e+04
-5.582400000000000000e+04
-6.128500000000000000e+04
-6.186100000000000000e+04
-5.688200000000000000e+04
-5.229600000000000000e+04
-5.592400000000000000e+04
-6.151300000000000000e+04
-6.196200000000000000e+04
-5.684400000000000000e+04
-5.209200000000000000e+04
-5.572600000000000000e+04
-6.155800000000000000e+04
-6.220100000000000000e+04
-5.713600000000000000e+04
-5.223800000000000000e+04
-5.570400000000000000e+04
-6.154200000000000000e+04
-6.225400000000000000e+04
-5.724200000000000000e+04
-5.234400000000000000e+04
-5.566100000000000000e+04
-6.139100000000000000e+04
-6.220700000000000000e+04
-5.714600000000000000e+04
-5.194300000000000000e+04
-5.529700000000000000e+04
-6.131600000000000000e+04
-6.218100000000000000e+04
-5.725100000000000000e+04
-5.228100000000000000e+04
-5.535100000000000000e+04
-6.119500000000000000e+04
-6.214200000000000000e+04
-5.729400000000000000e+04
-5.220500000000000000e+04
-5.536200000000000000e+04
-6.115400000000000000e+04
-6.211500000000000000e+04
-5.735700000000000000e+04
-5.223900000000000000e+04
-5.504700000000000000e+04
-6.091600000000000000e+04
-6.206700000000000000e+04
-5.735500000000000000e+04
-5.226700000000000000e+04
-5.512900000000000000e+04
-6.101900000000000000e+04
-6.221100000000000000e+04
-5.751700000000000000e+04
-5.221300000000000000e+04
-5.492300000000000000e+04
-6.085300000000000000e+04
-6.214400000000000000e+04
-5.746600000000000000e+04
-5.222900000000000000e+04
-5.485700000000000000e+04
-6.071800000000000000e+04
-6.194700000000000000e+04
-5.742100000000000000e+04
-5.212200000000000000e+04
-5.449000000000000000e+04
-6.043400000000000000e+04
-6.198000000000000000e+04
-5.754200000000000000e+04
-5.227900000000000000e+04
-5.461600000000000000e+04
-6.047800000000000000e+04
-6.194400000000000000e+04
-5.746100000000000000e+04
-5.209800000000000000e+04
-5.429600000000000000e+04
-6.014900000000000000e+04
-6.185300000000000000e+04
-5.764300000000000000e+04
-5.228200000000000000e+04
-5.437900000000000000e+04
-6.029700000000000000e+04
-6.194100000000000000e+04
-5.767500000000000000e+04
-5.212700000000000000e+04
-5.433000000000000000e+04
-6.024700000000000000e+04
-6.188700000000000000e+04
-5.774900000000000000e+04
-5.214900000000000000e+04
-5.401900000000000000e+04
-6.003500000000000000e+04
-6.186900000000000000e+04
-5.778000000000000000e+04
-5.218200000000000000e+04
-5.391100000000000000e+04
-6.003100000000000000e+04
-6.193500000000000000e+04
-5.788400000000000000e+04
-5.232200000000000000e+04
-5.385700000000000000e+04
-5.974200000000000000e+04
-6.178100000000000000e+04
-5.788700000000000000e+04
-5.227300000000000000e+04
-5.392900000000000000e+04
-5.985700000000000000e+04
-6.186800000000000000e+04
-5.786500000000000000e+04
-5.212400000000000000e+04
-5.332400000000000000e+04
-5.936700000000000000e+04
-6.179700000000000000e+04
-5.792700000000000000e+04
-5.240200000000000000e+04
-5.391700000000000000e+04
-5.988700000000000000e+04
-6.200500000000000000e+04
-5.809100000000000000e+04
-5.227400000000000000e+04
-5.351000000000000000e+04
-5.948500000000000000e+04
-6.181100000000000000e+04
-5.815700000000000000e+04
-5.235600000000000000e+04
-5.346700000000000000e+04
-5.944600000000000000e+04
-6.178300000000000000e+04
-5.835100000000000000e+04
-5.273700000000000000e+04
-5.366200000000000000e+04
-5.958700000000000000e+04
-6.202600000000000000e+04
-5.831800000000000000e+04
-5.212700000000000000e+04
-5.277800000000000000e+04
-5.872400000000000000e+04
-6.154700000000000000e+04
-5.848900000000000000e+04
-5.323500000000000000e+04
-5.451700000000000000e+04
-6.059800000000000000e+04
-6.300500000000000000e+04
-5.918200000000000000e+04
-5.308100000000000000e+04
-5.375800000000000000e+04
-5.971400000000000000e+04
-6.244700000000000000e+04
-5.910600000000000000e+04
-5.315200000000000000e+04
-5.361100000000000000e+04
-5.969200000000000000e+04
-6.253300000000000000e+04
-5.909900000000000000e+04
-5.314600000000000000e+04
-5.351400000000000000e+04
-5.961300000000000000e+04
-6.253700000000000000e+04
-5.924200000000000000e+04
-5.322800000000000000e+04
-5.357100000000000000e+04
-5.969800000000000000e+04
-6.281800000000000000e+04
-5.971300000000000000e+04
-5.373800000000000000e+04
-5.389500000000000000e+04
-5.981600000000000000e+04
-6.289600000000000000e+04
-5.981700000000000000e+04
-5.380600000000000000e+04
-5.389400000000000000e+04
-5.993500000000000000e+04
-6.318400000000000000e+04
-6.022800000000000000e+04
-5.423200000000000000e+04
-5.412200000000000000e+04
-6.005800000000000000e+04
-6.313600000000000000e+04
-6.009300000000000000e+04
-5.418200000000000000e+04
-5.391900000000000000e+04
-5.976400000000000000e+04
-6.295900000000000000e+04
-6.000700000000000000e+04
-5.426600000000000000e+04
-5.421700000000000000e+04
-6.008700000000000000e+04
-6.325700000000000000e+04
-6.046600000000000000e+04
-5.446800000000000000e+04
-5.393600000000000000e+04
-5.992000000000000000e+04
-6.354400000000000000e+04
-6.074100000000000000e+04
-5.473600000000000000e+04
-5.418700000000000000e+04
-5.995400000000000000e+04
-6.336300000000000000e+04
-6.084900000000000000e+04
-5.491300000000000000e+04
-5.426900000000000000e+04
-6.000800000000000000e+04
-6.357200000000000000e+04
-6.105600000000000000e+04
-5.494700000000000000e+04
-5.408900000000000000e+04
-5.992200000000000000e+04
-6.380800000000000000e+04
-6.123300000000000000e+04
-5.504400000000000000e+04
-5.418100000000000000e+04
-6.006200000000000000e+04
-6.385400000000000000e+04
-6.141500000000000000e+04
-5.537900000000000000e+04
-5.427500000000000000e+04
-5.996700000000000000e+04
-6.378200000000000000e+04
-6.137500000000000000e+04
-5.531500000000000000e+04
-5.411200000000000000e+04
-5.971900000000000000e+04
-6.358100000000000000e+04
-6.145600000000000000e+04
-5.549500000000000000e+04
-5.420400000000000000e+04
-5.997700000000000000e+04
-6.387800000000000000e+04
-6.167100000000000000e+04
-5.575100000000000000e+04
-5.434600000000000000e+04
-6.002200000000000000e+04
-6.400100000000000000e+04
-6.186600000000000000e+04
-5.578000000000000000e+04
-5.419200000000000000e+04
-5.984900000000000000e+04
-6.388400000000000000e+04
-6.172100000000000000e+04
-5.575300000000000000e+04
-5.415900000000000000e+04
-5.972200000000000000e+04
-6.385400000000000000e+04
-6.187900000000000000e+04
-5.600000000000000000e+04
-5.442400000000000000e+04
-5.988200000000000000e+04
-6.389400000000000000e+04
-6.198900000000000000e+04
-5.608000000000000000e+04
-5.428100000000000000e+04
-5.979300000000000000e+04
-6.401900000000000000e+04
-6.227400000000000000e+04
-5.641900000000000000e+04
-5.461100000000000000e+04
-6.009800000000000000e+04
-6.425700000000000000e+04
-6.239500000000000000e+04
-5.652800000000000000e+04
-5.453500000000000000e+04
-5.980600000000000000e+04
-6.398600000000000000e+04
-6.242700000000000000e+04
-5.664600000000000000e+04
-5.462900000000000000e+04
-6.000400000000000000e+04
-6.434900000000000000e+04
-6.275600000000000000e+04
-5.698500000000000000e+04
-5.479200000000000000e+04
-6.007800000000000000e+04
-6.451400000000000000e+04
-6.295900000000000000e+04
-5.716000000000000000e+04
-5.478200000000000000e+04
-6.003500000000000000e+04
-6.452100000000000000e+04
-6.319900000000000000e+04
-5.754100000000000000e+04
-5.509400000000000000e+04
-6.021300000000000000e+04
-6.473000000000000000e+04
-6.344100000000000000e+04
-5.769300000000000000e+04
-5.517300000000000000e+04
-6.035600000000000000e+04
-6.490200000000000000e+04
-6.357900000000000000e+04
-5.780600000000000000e+04
-5.531800000000000000e+04
-6.044900000000000000e+04
-6.509200000000000000e+04
-6.392600000000000000e+04
-5.829600000000000000e+04
-5.543900000000000000e+04
-6.013700000000000000e+04
-6.456900000000000000e+04
-6.358300000000000000e+04
-5.788600000000000000e+04
-5.486200000000000000e+04
-5.969900000000000000e+04
-6.464400000000000000e+04
-6.419700000000000000e+04
-5.924400000000000000e+04
-5.671200000000000000e+04
-6.156600000000000000e+04
-6.623200000000000000e+04
-6.522700000000000000e+04
-5.957100000000000000e+04
-5.636100000000000000e+04
-6.098600000000000000e+04
-6.575800000000000000e+04
-6.509100000000000000e+04
-5.956700000000000000e+04
-5.634100000000000000e+04
-6.108400000000000000e+04
-6.600000000000000000e+04
-6.536700000000000000e+04
-5.995900000000000000e+04
-5.673400000000000000e+04
-6.136200000000000000e+04
-6.630300000000000000e+04
-6.573000000000000000e+04
-6.026900000000000000e+04
-5.698400000000000000e+04
-6.155900000000000000e+04
-6.655900000000000000e+04
-6.601100000000000000e+04
-6.057100000000000000e+04
-5.702200000000000000e+04
-6.154800000000000000e+04
-6.672100000000000000e+04
-6.636800000000000000e+04
-6.104600000000000000e+04
-5.749900000000000000e+04
-6.181900000000000000e+04
-6.693000000000000000e+04
-6.654100000000000000e+04
-6.121300000000000000e+04
-5.754200000000000000e+04
-6.183600000000000000e+04
-6.687200000000000000e+04
-6.670400000000000000e+04
-6.138400000000000000e+04
-5.770300000000000000e+04
-6.202700000000000000e+04
-6.708500000000000000e+04
-6.686600000000000000e+04
-6.173200000000000000e+04
-5.799400000000000000e+04
-6.211700000000000000e+04
-6.724500000000000000e+04
-6.720900000000000000e+04
-6.209700000000000000e+04
-5.818500000000000000e+04
-6.220900000000000000e+04
-6.749200000000000000e+04
-6.754200000000000000e+04
-6.225500000000000000e+04
-5.821200000000000000e+04
-6.224600000000000000e+04
-6.761400000000000000e+04
-6.778200000000000000e+04
-6.286200000000000000e+04
-5.876600000000000000e+04
-6.262600000000000000e+04
-6.787600000000000000e+04
-6.798900000000000000e+04
-6.299700000000000000e+04
-5.902200000000000000e+04
-6.293000000000000000e+04
-6.825100000000000000e+04
-6.848600000000000000e+04
-6.349500000000000000e+04
-5.927100000000000000e+04
-6.301600000000000000e+04
-6.840400000000000000e+04
-6.866300000000000000e+04
-6.361200000000000000e+04
-5.918200000000000000e+04
-6.286500000000000000e+04
-6.860700000000000000e+04
-6.895600000000000000e+04
-6.402500000000000000e+04
-5.973600000000000000e+04
-6.335900000000000000e+04
-6.891000000000000000e+04
-6.918700000000000000e+04
-6.412200000000000000e+04
-5.990800000000000000e+04
-6.356400000000000000e+04
-6.902400000000000000e+04
-6.926700000000000000e+04
-6.410200000000000000e+04
-5.969900000000000000e+04
-6.329400000000000000e+04
-6.860100000000000000e+04
-6.953800000000000000e+04
-6.502700000000000000e+04
-6.043800000000000000e+04
-6.353100000000000000e+04
-6.914900000000000000e+04
-7.011400000000000000e+04
-6.514600000000000000e+04
-6.034500000000000000e+04
-6.306200000000000000e+04
-6.913400000000000000e+04
-7.019700000000000000e+04
-6.537400000000000000e+04
-6.020000000000000000e+04
-6.274400000000000000e+04
-6.829900000000000000e+04
-7.083300000000000000e+04
-6.672800000000000000e+04
-6.139200000000000000e+04
-6.408700000000000000e+04
-6.963600000000000000e+04
-6.990300000000000000e+04
-6.481400000000000000e+04
-6.022700000000000000e+04
-6.379600000000000000e+04
-6.935900000000000000e+04
-7.048700000000000000e+04
-6.590600000000000000e+04
-6.097900000000000000e+04
-6.383100000000000000e+04
-6.931400000000000000e+04
-6.983600000000000000e+04
-6.381600000000000000e+04
-5.878600000000000000e+04
-6.370600000000000000e+04
-7.063400000000000000e+04
-7.125600000000000000e+04
-6.653200000000000000e+04
-6.104900000000000000e+04
-6.342400000000000000e+04
-6.967200000000000000e+04
-7.059700000000000000e+04
-6.623400000000000000e+04
-6.064300000000000000e+04
-6.262100000000000000e+04
-6.905100000000000000e+04
-7.047700000000000000e+04
-6.610500000000000000e+04
-6.152500000000000000e+04
-6.365700000000000000e+04
-6.871800000000000000e+04
-6.911300000000000000e+04
-6.428800000000000000e+04
-5.726000000000000000e+04
-5.828400000000000000e+04
-6.611200000000000000e+04
-7.028400000000000000e+04
-6.718500000000000000e+04
-6.253600000000000000e+04
-6.381700000000000000e+04
-6.885700000000000000e+04
-6.875200000000000000e+04
-6.088700000000000000e+04
-5.065200000000000000e+04
-4.619300000000000000e+04
-5.119400000000000000e+04
-5.859300000000000000e+04
-6.711300000000000000e+04
-6.009200000000000000e+04
-5.474400000000000000e+04
-6.000000000000000000e+04
-6.583500000000000000e+04
-6.371100000000000000e+04
-5.569200000000000000e+04
-5.216700000000000000e+04
-5.502300000000000000e+04
-6.209100000000000000e+04
-6.448100000000000000e+04
-5.764200000000000000e+04
-6.055100000000000000e+04
-6.853900000000000000e+04
-6.631300000000000000e+04
-5.606400000000000000e+04
-4.376100000000000000e+04
-3.937400000000000000e+04
-4.299800000000000000e+04
-5.343500000000000000e+04
-6.421800000000000000e+04
-6.144200000000000000e+04
-4.960900000000000000e+04
-4.706800000000000000e+04
-5.435600000000000000e+04
-5.270400000000000000e+04
-4.235800000000000000e+04
-4.783300000000000000e+04
-4.998400000000000000e+04
-5.624200000000000000e+04
-5.500600000000000000e+04
-4.259000000000000000e+04
-4.729200000000000000e+04
-4.633100000000000000e+04
-4.944800000000000000e+04
-5.497100000000000000e+04
-4.654200000000000000e+04
-4.869700000000000000e+04
-5.432200000000000000e+04
-5.075700000000000000e+04
-5.362900000000000000e+04
-5.509500000000000000e+04
-5.153600000000000000e+04
-5.451600000000000000e+04
-5.889300000000000000e+04
-6.695900000000000000e+04
-5.776100000000000000e+04
-4.614800000000000000e+04
-5.849500000000000000e+04
-7.200300000000000000e+04
-6.570500000000000000e+04
-5.523900000000000000e+04
-5.213900000000000000e+04
-6.148900000000000000e+04
-6.179100000000000000e+04
-6.408900000000000000e+04
-6.187300000000000000e+04
-5.931700000000000000e+04
-6.327000000000000000e+04
-6.698400000000000000e+04
-6.408100000000000000e+04
-5.773800000000000000e+04
-5.865900000000000000e+04
-6.496900000000000000e+04
-6.758100000000000000e+04
-6.393600000000000000e+04
-5.785700000000000000e+04
-5.834100000000000000e+04
-6.409800000000000000e+04
-6.677000000000000000e+04
-6.332900000000000000e+04
-5.730600000000000000e+04
-5.671400000000000000e+04
-6.288900000000000000e+04
-6.522600000000000000e+04
-6.086200000000000000e+04
-5.854100000000000000e+04
-6.015900000000000000e+04
-6.515400000000000000e+04
-6.673400000000000000e+04
-6.319500000000000000e+04
-5.741700000000000000e+04
-5.767200000000000000e+04
-6.429400000000000000e+04
-6.471600000000000000e+04
-6.009200000000000000e+04
-5.651800000000000000e+04
-6.066400000000000000e+04
-6.754600000000000000e+04
-6.922800000000000000e+04
-6.484600000000000000e+04
-5.665500000000000000e+04
-5.799900000000000000e+04
-6.711200000000000000e+04
-6.988300000000000000e+04
-6.649900000000000000e+04
-6.011100000000000000e+04
-5.972800000000000000e+04
-6.555400000000000000e+04
-6.876500000000000000e+04
-6.610700000000000000e+04
-6.006100000000000000e+04
-5.957900000000000000e+04
-6.573200000000000000e+04
-6.916800000000000000e+04
-6.646200000000000000e+04
-6.035200000000000000e+04
-5.988700000000000000e+04
-6.584600000000000000e+04
-6.947500000000000000e+04
-6.688100000000000000e+04
-6.085000000000000000e+04
-6.036600000000000000e+04
-6.648700000000000000e+04
-7.039200000000000000e+04
-6.794100000000000000e+04
-6.189900000000000000e+04
-6.125000000000000000e+04
-6.735500000000000000e+04
-7.134600000000000000e+04
-6.895600000000000000e+04
-6.293600000000000000e+04
-6.227200000000000000e+04
-6.828100000000000000e+04
-7.212200000000000000e+04
-6.983800000000000000e+04
-6.369400000000000000e+04
-6.281200000000000000e+04
-6.890000000000000000e+04
-7.278400000000000000e+04
-7.029900000000000000e+04
-6.402000000000000000e+04
-6.302800000000000000e+04
-6.903600000000000000e+04
-7.282800000000000000e+04
-7.047600000000000000e+04
-6.418500000000000000e+04
-6.295700000000000000e+04
-6.907800000000000000e+04
-7.289600000000000000e+04
-7.004900000000000000e+04
-6.414600000000000000e+04
-6.314100000000000000e+04
-6.906200000000000000e+04
-7.365400000000000000e+04
-7.175600000000000000e+04
-6.525200000000000000e+04
-6.285900000000000000e+04
-6.889700000000000000e+04
-7.405900000000000000e+04
-7.218800000000000000e+04
-6.580600000000000000e+04
-6.419400000000000000e+04
-6.993200000000000000e+04
-7.397900000000000000e+04
-7.193000000000000000e+04
-6.560900000000000000e+04
-6.373600000000000000e+04
-6.945600000000000000e+04
-7.376600000000000000e+04
-7.186100000000000000e+04
-6.578200000000000000e+04
-6.385900000000000000e+04
-6.912400000000000000e+04
-7.303100000000000000e+04
-7.098900000000000000e+04
-6.490700000000000000e+04
-6.299900000000000000e+04
-6.877800000000000000e+04
-7.376500000000000000e+04
-7.234700000000000000e+04
-6.637900000000000000e+04
-6.504100000000000000e+04
-7.053800000000000000e+04
-7.468700000000000000e+04
-7.278800000000000000e+04
-6.642800000000000000e+04
-6.378500000000000000e+04
-6.931100000000000000e+04
-7.393600000000000000e+04
-7.256700000000000000e+04
-6.696400000000000000e+04
-6.469100000000000000e+04
-6.990700000000000000e+04
-7.413100000000000000e+04
-7.252000000000000000e+04
-6.667200000000000000e+04
-6.421500000000000000e+04
-6.949800000000000000e+04
-7.395500000000000000e+04
-7.232600000000000000e+04
-6.632700000000000000e+04
-6.397300000000000000e+04
-6.965400000000000000e+04
-7.431300000000000000e+04
-7.268100000000000000e+04
-6.638500000000000000e+04
-6.315300000000000000e+04
-6.891800000000000000e+04
-7.445400000000000000e+04
-7.333100000000000000e+04
-6.713700000000000000e+04
-6.432400000000000000e+04
-6.913600000000000000e+04
-7.364100000000000000e+04
-7.248400000000000000e+04
-6.667000000000000000e+04
-6.400400000000000000e+04
-6.928700000000000000e+04
-7.434200000000000000e+04
-7.319200000000000000e+04
-6.750200000000000000e+04
-6.437100000000000000e+04
-6.933100000000000000e+04
-7.402600000000000000e+04
-7.284100000000000000e+04
-6.722600000000000000e+04
-6.427100000000000000e+04
-6.932200000000000000e+04
-7.451600000000000000e+04
-7.343200000000000000e+04
-6.731400000000000000e+04
-6.416200000000000000e+04
-6.930900000000000000e+04
-7.422500000000000000e+04
-7.287700000000000000e+04
-6.660400000000000000e+04
-6.363100000000000000e+04
-6.874300000000000000e+04
-7.370700000000000000e+04
-7.334800000000000000e+04
-6.733400000000000000e+04
-6.412100000000000000e+04
-6.900100000000000000e+04
-7.407900000000000000e+04
-7.341700000000000000e+04
-6.756400000000000000e+04
-6.398200000000000000e+04
-6.878300000000000000e+04
-7.383600000000000000e+04
-7.312600000000000000e+04
-6.715600000000000000e+04
-6.341300000000000000e+04
-6.823100000000000000e+04
-7.339300000000000000e+04
-7.303700000000000000e+04
-6.744000000000000000e+04
-6.377200000000000000e+04
-6.829200000000000000e+04
-7.343200000000000000e+04
-7.325600000000000000e+04
-6.757600000000000000e+04
-6.363800000000000000e+04
-6.814800000000000000e+04
-7.332600000000000000e+04
-7.268100000000000000e+04
-6.707400000000000000e+04
-6.334200000000000000e+04
-6.792500000000000000e+04
-7.313700000000000000e+04
-7.244000000000000000e+04
-6.671600000000000000e+04
-6.303500000000000000e+04
-6.763000000000000000e+04
-7.307200000000000000e+04
-7.251700000000000000e+04
-6.679200000000000000e+04
-6.282000000000000000e+04
-6.732600000000000000e+04
-7.247100000000000000e+04
-7.210800000000000000e+04
-6.662600000000000000e+04
-6.247500000000000000e+04
-6.682100000000000000e+04
-7.230000000000000000e+04
-7.217100000000000000e+04
-6.667600000000000000e+04
-6.242100000000000000e+04
-6.644600000000000000e+04
-7.219200000000000000e+04
-7.259700000000000000e+04
-6.728200000000000000e+04
-6.306200000000000000e+04
-6.723600000000000000e+04
-7.257300000000000000e+04
-7.245100000000000000e+04
-6.700800000000000000e+04
-6.275000000000000000e+04
-6.709100000000000000e+04
-7.271000000000000000e+04
-7.286400000000000000e+04
-6.763100000000000000e+04
-6.325400000000000000e+04
-6.731500000000000000e+04
-7.291600000000000000e+04
-7.312600000000000000e+04
-6.789100000000000000e+04
-6.353400000000000000e+04
-6.746300000000000000e+04
-7.286700000000000000e+04
-7.294500000000000000e+04
-6.773200000000000000e+04
-6.379400000000000000e+04
-6.754300000000000000e+04
-7.310800000000000000e+04
-7.352500000000000000e+04
-6.845400000000000000e+04
-6.390400000000000000e+04
-6.746900000000000000e+04
-7.299600000000000000e+04
-7.348400000000000000e+04
-6.859900000000000000e+04
-6.380100000000000000e+04
-6.727900000000000000e+04
-7.295600000000000000e+04
-7.372500000000000000e+04
-6.876400000000000000e+04
-6.390000000000000000e+04
-6.734400000000000000e+04
-7.306500000000000000e+04
-7.380100000000000000e+04
-6.895200000000000000e+04
-6.398300000000000000e+04
-6.733400000000000000e+04
-7.315400000000000000e+04
-7.361700000000000000e+04
-6.865400000000000000e+04
-6.370900000000000000e+04
-6.664000000000000000e+04
-7.202000000000000000e+04
-7.291900000000000000e+04
-6.843600000000000000e+04
-6.379100000000000000e+04
-6.733300000000000000e+04
-7.373000000000000000e+04
-7.481700000000000000e+04
-6.987200000000000000e+04
-6.473200000000000000e+04
-6.747100000000000000e+04
-7.295600000000000000e+04
-7.387100000000000000e+04
-6.896800000000000000e+04
-6.386700000000000000e+04
-6.708000000000000000e+04
-7.288900000000000000e+04
-7.392700000000000000e+04
-6.937900000000000000e+04
-6.423100000000000000e+04
-6.693300000000000000e+04
-7.279700000000000000e+04
-7.413900000000000000e+04
-6.957000000000000000e+04
-6.427000000000000000e+04
-6.681700000000000000e+04
-7.261700000000000000e+04
-7.387700000000000000e+04
-6.955400000000000000e+04
-6.433100000000000000e+04
-6.678300000000000000e+04
-7.265200000000000000e+04
-7.398400000000000000e+04
-6.959200000000000000e+04
-6.440800000000000000e+04
-6.680200000000000000e+04
-7.262600000000000000e+04
-7.388100000000000000e+04
-6.960200000000000000e+04
-6.435900000000000000e+04
-6.638600000000000000e+04
-7.228000000000000000e+04
-7.387400000000000000e+04
-6.960100000000000000e+04
-6.433100000000000000e+04
-6.662900000000000000e+04
-7.250400000000000000e+04
-7.404400000000000000e+04
-6.980400000000000000e+04
-6.438300000000000000e+04
-6.650800000000000000e+04
-7.231600000000000000e+04
-7.386200000000000000e+04
-6.964700000000000000e+04
-6.418000000000000000e+04
-6.618200000000000000e+04
-7.211600000000000000e+04
-7.389200000000000000e+04
-6.963400000000000000e+04
-6.409200000000000000e+04
-6.609700000000000000e+04
-7.176200000000000000e+04
-7.338400000000000000e+04
-6.962000000000000000e+04
-6.429900000000000000e+04
-6.607600000000000000e+04
-7.186900000000000000e+04
-7.367100000000000000e+04
-6.961000000000000000e+04
-6.422400000000000000e+04
-6.596600000000000000e+04
-7.186200000000000000e+04
-7.372000000000000000e+04
-6.985500000000000000e+04
-6.439700000000000000e+04
-6.591800000000000000e+04
-7.182200000000000000e+04
-7.390100000000000000e+04
-7.002900000000000000e+04
-6.418000000000000000e+04
-6.567900000000000000e+04
-7.191600000000000000e+04
-7.410600000000000000e+04
-7.031700000000000000e+04
-6.454600000000000000e+04
-6.579400000000000000e+04
-7.166400000000000000e+04
-7.394500000000000000e+04
-7.027200000000000000e+04
-6.450200000000000000e+04
-6.581500000000000000e+04
-7.170400000000000000e+04
-7.386600000000000000e+04
-7.013600000000000000e+04
-6.437100000000000000e+04
-6.558100000000000000e+04
-7.156700000000000000e+04
-7.390800000000000000e+04
-7.029100000000000000e+04
-6.451100000000000000e+04
-6.544900000000000000e+04
-7.115300000000000000e+04
-7.404600000000000000e+04
-7.082900000000000000e+04
-6.485700000000000000e+04
-6.571200000000000000e+04
-7.155900000000000000e+04
-7.403700000000000000e+04
-7.053500000000000000e+04
-6.478600000000000000e+04
-6.550100000000000000e+04
-7.132900000000000000e+04
-7.391700000000000000e+04
-7.068600000000000000e+04
-6.488600000000000000e+04
-6.533900000000000000e+04
-7.125200000000000000e+04
-7.392600000000000000e+04
-7.070600000000000000e+04
-6.502000000000000000e+04
-6.546400000000000000e+04
-7.135900000000000000e+04
-7.411300000000000000e+04
-7.077800000000000000e+04
-6.495700000000000000e+04
-6.524900000000000000e+04
-7.112600000000000000e+04
-7.413900000000000000e+04
-7.108700000000000000e+04
-6.520200000000000000e+04
-6.557000000000000000e+04
-7.114700000000000000e+04
-7.383500000000000000e+04
-7.110900000000000000e+04
-6.550200000000000000e+04
-6.562800000000000000e+04
-7.128900000000000000e+04
-7.413600000000000000e+04
-7.099500000000000000e+04
-6.532900000000000000e+04
-6.557600000000000000e+04
-7.112700000000000000e+04
-7.420700000000000000e+04
-7.150300000000000000e+04
-6.564900000000000000e+04
-6.548400000000000000e+04
-7.117200000000000000e+04
-7.427600000000000000e+04
-7.159100000000000000e+04
-6.576000000000000000e+04
-6.543800000000000000e+04
-7.104800000000000000e+04
-7.422600000000000000e+04
-7.161900000000000000e+04
-6.583100000000000000e+04
-6.570400000000000000e+04
-7.143100000000000000e+04
-7.472300000000000000e+04
-7.207700000000000000e+04
-6.597800000000000000e+04
-6.522700000000000000e+04
-7.084900000000000000e+04
-7.411700000000000000e+04
-7.122100000000000000e+04
-6.509600000000000000e+04
-6.455600000000000000e+04
-7.056100000000000000e+04
-7.438200000000000000e+04
-7.246900000000000000e+04
-6.723100000000000000e+04
-6.650200000000000000e+04
-7.194700000000000000e+04
-7.514600000000000000e+04
-7.262600000000000000e+04
-6.687600000000000000e+04
-6.587400000000000000e+04
-7.138600000000000000e+04
-7.462100000000000000e+04
-7.207700000000000000e+04
-6.655500000000000000e+04
-6.563600000000000000e+04
-7.115900000000000000e+04
-7.503400000000000000e+04
-7.272100000000000000e+04
-6.694300000000000000e+04
-6.586200000000000000e+04
-7.138400000000000000e+04
-7.501200000000000000e+04
-7.281700000000000000e+04
-6.698200000000000000e+04
-6.583800000000000000e+04
-7.146700000000000000e+04
-7.523700000000000000e+04
-7.304700000000000000e+04
-6.723400000000000000e+04
-6.588900000000000000e+04
-7.135200000000000000e+04
-7.515000000000000000e+04
-7.326000000000000000e+04
-6.743300000000000000e+04
-6.601700000000000000e+04
-7.146600000000000000e+04
-7.535100000000000000e+04
-7.332400000000000000e+04
-6.744200000000000000e+04
-6.600900000000000000e+04
-7.155200000000000000e+04
-7.554800000000000000e+04
-7.340900000000000000e+04
-6.774700000000000000e+04
-6.618200000000000000e+04
-7.160400000000000000e+04
-7.566900000000000000e+04
-7.393600000000000000e+04
-6.815800000000000000e+04
-6.638300000000000000e+04
-7.181200000000000000e+04
-7.583900000000000000e+04
-7.410700000000000000e+04
-6.841200000000000000e+04
-6.657700000000000000e+04
-7.185700000000000000e+04
-7.590300000000000000e+04
-7.409200000000000000e+04
-6.832100000000000000e+04
-6.638200000000000000e+04
-7.182900000000000000e+04
-7.601100000000000000e+04
-7.440300000000000000e+04
-6.889500000000000000e+04
-6.686800000000000000e+04
-7.203400000000000000e+04
-7.612500000000000000e+04
-7.468900000000000000e+04
-6.914200000000000000e+04
-6.695200000000000000e+04
-7.214100000000000000e+04
-7.643100000000000000e+04
-7.494200000000000000e+04
-6.920600000000000000e+04
-6.684700000000000000e+04
-7.193700000000000000e+04
-7.620200000000000000e+04
-7.496100000000000000e+04
-6.934600000000000000e+04
-6.709100000000000000e+04
-7.235900000000000000e+04
-7.673400000000000000e+04
-7.532400000000000000e+04
-6.970500000000000000e+04
-6.738100000000000000e+04
-7.250800000000000000e+04
-7.699000000000000000e+04
-7.566700000000000000e+04
-7.004500000000000000e+04
-6.740700000000000000e+04
-7.232400000000000000e+04
-7.689300000000000000e+04
-7.576500000000000000e+04
-7.016000000000000000e+04
-6.767100000000000000e+04
-7.267200000000000000e+04
-7.706400000000000000e+04
-7.599600000000000000e+04
-7.054700000000000000e+04
-6.777900000000000000e+04
-7.276900000000000000e+04
-7.731100000000000000e+04
-7.618700000000000000e+04
-7.061900000000000000e+04
-6.797600000000000000e+04
-7.303300000000000000e+04
-7.781400000000000000e+04
-7.678200000000000000e+04
-7.113200000000000000e+04
-6.820100000000000000e+04
-7.299800000000000000e+04
-7.777600000000000000e+04
-7.702900000000000000e+04
-7.143800000000000000e+04
-6.827900000000000000e+04
-7.313700000000000000e+04
-7.795100000000000000e+04
-7.717400000000000000e+04
-7.163100000000000000e+04
-6.832100000000000000e+04
-7.332400000000000000e+04
-7.823600000000000000e+04
-7.763600000000000000e+04
-7.219900000000000000e+04
-6.888100000000000000e+04
-7.338900000000000000e+04
-7.827700000000000000e+04
-7.774500000000000000e+04
-7.216600000000000000e+04
-6.867200000000000000e+04
-7.342600000000000000e+04
-7.852200000000000000e+04
-7.798400000000000000e+04
-7.248400000000000000e+04
-6.903400000000000000e+04
-7.363600000000000000e+04
-7.856500000000000000e+04
-7.820600000000000000e+04
-7.292600000000000000e+04
-6.928800000000000000e+04
-7.369700000000000000e+04
-7.883600000000000000e+04
-7.861500000000000000e+04
-7.336200000000000000e+04
-6.960400000000000000e+04
-7.387100000000000000e+04
-7.889000000000000000e+04
-7.896100000000000000e+04
-7.382600000000000000e+04
-6.982700000000000000e+04
-7.387600000000000000e+04
-7.891900000000000000e+04
-7.896600000000000000e+04
-7.348600000000000000e+04
-6.951600000000000000e+04
-7.383100000000000000e+04
-7.958500000000000000e+04
-7.924500000000000000e+04
-7.378100000000000000e+04
-6.971100000000000000e+04
-7.319600000000000000e+04
-7.714900000000000000e+04
-7.625800000000000000e+04
-7.213400000000000000e+04
-6.862900000000000000e+04
-7.065900000000000000e+04
-7.400800000000000000e+04
-7.653100000000000000e+04
-7.713700000000000000e+04
-7.182200000000000000e+04
-7.196800000000000000e+04
-7.431600000000000000e+04
-7.280200000000000000e+04
-6.842000000000000000e+04
-6.773000000000000000e+04
-6.962100000000000000e+04
-6.390100000000000000e+04
-5.866700000000000000e+04
-6.052000000000000000e+04
-6.462000000000000000e+04
-7.496500000000000000e+04
-8.115400000000000000e+04
-7.131000000000000000e+04
-5.415600000000000000e+04
-5.260600000000000000e+04
-6.713100000000000000e+04
-7.753100000000000000e+04
-6.519200000000000000e+04
-5.332400000000000000e+04
-6.184400000000000000e+04
-6.953100000000000000e+04
-6.066900000000000000e+04
-5.847100000000000000e+04
-6.655100000000000000e+04
-6.697300000000000000e+04
-6.380200000000000000e+04
-6.465600000000000000e+04
-6.014500000000000000e+04
-5.735400000000000000e+04
-4.762300000000000000e+04
-5.372200000000000000e+04
-7.023600000000000000e+04
-6.822700000000000000e+04
-5.992700000000000000e+04
-4.974900000000000000e+04
-5.537800000000000000e+04
-6.517900000000000000e+04
-6.781400000000000000e+04
-5.794800000000000000e+04
-5.204000000000000000e+04
-5.718400000000000000e+04
-6.392600000000000000e+04
-7.692900000000000000e+04
-6.860000000000000000e+04
-5.077300000000000000e+04
-5.612200000000000000e+04
-7.282600000000000000e+04
-7.340900000000000000e+04
-6.402500000000000000e+04
-5.534700000000000000e+04
-6.588200000000000000e+04
-6.797200000000000000e+04
-6.846600000000000000e+04
-7.529600000000000000e+04
-6.813000000000000000e+04
-6.209400000000000000e+04
-6.989400000000000000e+04
-7.861200000000000000e+04
-7.419300000000000000e+04
-6.157100000000000000e+04
-6.320200000000000000e+04
-7.522800000000000000e+04
-7.489700000000000000e+04
-7.004100000000000000e+04
-6.617700000000000000e+04
-7.265100000000000000e+04
-7.727400000000000000e+04
-7.651200000000000000e+04
-7.163700000000000000e+04
-6.676400000000000000e+04
-6.933100000000000000e+04
-7.512400000000000000e+04
-7.608700000000000000e+04
-7.082700000000000000e+04
-6.570900000000000000e+04
-6.836600000000000000e+04
-7.459500000000000000e+04
-7.555900000000000000e+04
-7.054900000000000000e+04
-6.589600000000000000e+04
-6.928100000000000000e+04
-7.556100000000000000e+04
-7.557200000000000000e+04
-7.047500000000000000e+04
-6.640100000000000000e+04
-6.935100000000000000e+04
-7.526700000000000000e+04
-7.598500000000000000e+04
-6.927700000000000000e+04
-6.440000000000000000e+04
-7.066300000000000000e+04
-7.621200000000000000e+04
-7.535700000000000000e+04
-6.848200000000000000e+04
-6.747600000000000000e+04
-7.260200000000000000e+04
-7.727800000000000000e+04
-7.834100000000000000e+04
-7.358700000000000000e+04
-6.787600000000000000e+04
-6.982900000000000000e+04
-7.598100000000000000e+04
-7.803400000000000000e+04
-7.400700000000000000e+04
-6.842700000000000000e+04
-7.010600000000000000e+04
-7.605600000000000000e+04
-7.794300000000000000e+04
-7.408100000000000000e+04
-6.861400000000000000e+04
-7.040800000000000000e+04
-7.630600000000000000e+04
-7.835500000000000000e+04
-7.394400000000000000e+04
-6.832700000000000000e+04
-7.083400000000000000e+04
-7.677200000000000000e+04
-7.910800000000000000e+04
-7.548100000000000000e+04
-6.996400000000000000e+04
-7.157700000000000000e+04
-7.789600000000000000e+04
-8.021100000000000000e+04
-7.631400000000000000e+04
-7.066500000000000000e+04
-7.224100000000000000e+04
-7.830900000000000000e+04
-8.061600000000000000e+04
-7.697200000000000000e+04
-7.139200000000000000e+04
-7.282000000000000000e+04
-7.892500000000000000e+04
-8.129200000000000000e+04
-7.777900000000000000e+04
-7.226200000000000000e+04
-7.349600000000000000e+04
-7.958100000000000000e+04
-8.199100000000000000e+04
-7.846000000000000000e+04
-7.276000000000000000e+04
-7.394400000000000000e+04
-8.004600000000000000e+04
-8.252700000000000000e+04
-7.906900000000000000e+04
-7.336700000000000000e+04
-7.440200000000000000e+04
-8.075400000000000000e+04
-8.336300000000000000e+04
-7.986700000000000000e+04
-7.387500000000000000e+04
-7.458100000000000000e+04
-8.044000000000000000e+04
-8.299600000000000000e+04
-7.941900000000000000e+04
-7.353600000000000000e+04
-7.442600000000000000e+04
-8.078400000000000000e+04
-8.420200000000000000e+04
-8.142100000000000000e+04
-7.557800000000000000e+04
-7.617500000000000000e+04
-8.235400000000000000e+04
-8.489600000000000000e+04
-8.125600000000000000e+04
-7.520600000000000000e+04
-7.570200000000000000e+04
-8.183400000000000000e+04
-8.476400000000000000e+04
-8.153500000000000000e+04
-7.546600000000000000e+04
-7.585200000000000000e+04
-8.204600000000000000e+04
-8.509300000000000000e+04
-8.188200000000000000e+04
-7.564200000000000000e+04
-7.579700000000000000e+04
-8.199000000000000000e+04
-8.498100000000000000e+04
-8.189500000000000000e+04
-7.576400000000000000e+04
-7.607000000000000000e+04
-8.229700000000000000e+04
-8.539700000000000000e+04
-8.226500000000000000e+04
-7.624600000000000000e+04
-7.626600000000000000e+04
-8.225600000000000000e+04
-8.534700000000000000e+04
-8.245400000000000000e+04
-7.638100000000000000e+04
-7.611600000000000000e+04
-8.206900000000000000e+04
-8.557500000000000000e+04
-8.286600000000000000e+04
-7.686600000000000000e+04
-7.646600000000000000e+04
-8.238500000000000000e+04
-8.569700000000000000e+04
-8.282100000000000000e+04
-7.670700000000000000e+04
-7.631100000000000000e+04
-8.215400000000000000e+04
-8.565600000000000000e+04
-8.290100000000000000e+04
-7.686200000000000000e+04
-7.631700000000000000e+04
-8.228700000000000000e+04
-8.573100000000000000e+04
-8.327200000000000000e+04
-7.735400000000000000e+04
-7.672300000000000000e+04
-8.264300000000000000e+04
-8.601200000000000000e+04
-8.334500000000000000e+04
-7.717500000000000000e+04
-7.618200000000000000e+04
-8.196400000000000000e+04
-8.585700000000000000e+04
-8.332000000000000000e+04
-7.722400000000000000e+04
-7.639200000000000000e+04
-8.217100000000000000e+04
-8.569900000000000000e+04
-8.328100000000000000e+04
-7.736200000000000000e+04
-7.636400000000000000e+04
-8.203600000000000000e+04
-8.591900000000000000e+04
-8.352700000000000000e+04
-7.752100000000000000e+04
-7.640100000000000000e+04
-8.220400000000000000e+04
-8.596600000000000000e+04
-8.371100000000000000e+04
-7.773900000000000000e+04
-7.703200000000000000e+04
-8.278200000000000000e+04
-8.661100000000000000e+04
-8.457700000000000000e+04
-7.853600000000000000e+04
-7.719200000000000000e+04
-8.276900000000000000e+04
-8.673400000000000000e+04
-8.464000000000000000e+04
-7.858600000000000000e+04
-7.707300000000000000e+04
-8.270200000000000000e+04
-8.675200000000000000e+04
-8.474900000000000000e+04
-7.875600000000000000e+04
-7.725500000000000000e+04
-8.280400000000000000e+04
-8.667700000000000000e+04
-8.451100000000000000e+04
-7.863400000000000000e+04
-7.720900000000000000e+04
-8.289900000000000000e+04
-8.688400000000000000e+04
-8.463900000000000000e+04
-7.882800000000000000e+04
-7.728400000000000000e+04
-8.306400000000000000e+04
-8.722700000000000000e+04
-8.533900000000000000e+04
-7.950700000000000000e+04
-7.760400000000000000e+04
-8.293200000000000000e+04
-8.715900000000000000e+04
-8.546700000000000000e+04
-7.953900000000000000e+04
-7.738900000000000000e+04
-8.278300000000000000e+04
-8.704100000000000000e+04
-8.541000000000000000e+04
-7.958400000000000000e+04
-7.752600000000000000e+04
-8.285600000000000000e+04
-8.707800000000000000e+04
-8.543300000000000000e+04
-7.949100000000000000e+04
-7.743600000000000000e+04
-8.272100000000000000e+04
-8.717200000000000000e+04
-8.569500000000000000e+04
-7.962300000000000000e+04
-7.728600000000000000e+04
-8.283800000000000000e+04
-8.725200000000000000e+04
-8.574700000000000000e+04
-8.005900000000000000e+04
-7.771900000000000000e+04
-8.294800000000000000e+04
-8.756000000000000000e+04
-8.621900000000000000e+04
-8.039100000000000000e+04
-7.790900000000000000e+04
-8.300300000000000000e+04
-8.758200000000000000e+04
-8.636200000000000000e+04
-8.063400000000000000e+04
-7.803600000000000000e+04
-8.302700000000000000e+04
-8.749000000000000000e+04
-8.644100000000000000e+04
-8.078400000000000000e+04
-7.791700000000000000e+04
-8.294200000000000000e+04
-8.766900000000000000e+04
-8.668100000000000000e+04
-8.092600000000000000e+04
-7.797900000000000000e+04
-8.268400000000000000e+04
-8.739400000000000000e+04
-8.639900000000000000e+04
-8.056500000000000000e+04
-7.733700000000000000e+04
-8.216800000000000000e+04
-8.714700000000000000e+04
-8.678700000000000000e+04
-8.184600000000000000e+04
-7.932400000000000000e+04
-8.397300000000000000e+04
-8.870300000000000000e+04
-8.774600000000000000e+04
-8.181100000000000000e+04
-7.835900000000000000e+04
-8.313200000000000000e+04
-8.803100000000000000e+04
-8.716400000000000000e+04
-8.159400000000000000e+04
-7.843800000000000000e+04
-8.311600000000000000e+04
-8.804100000000000000e+04
-8.730900000000000000e+04
-8.185900000000000000e+04
-7.874700000000000000e+04
-8.333700000000000000e+04
-8.831100000000000000e+04
-8.778300000000000000e+04
-8.229400000000000000e+04
-7.888500000000000000e+04
-8.335700000000000000e+04
-8.843600000000000000e+04
-8.795300000000000000e+04
-8.253200000000000000e+04
-7.904400000000000000e+04
-8.349700000000000000e+04
-8.869500000000000000e+04
-8.817700000000000000e+04
-8.259300000000000000e+04
-7.896100000000000000e+04
-8.344600000000000000e+04
-8.873300000000000000e+04
-8.838400000000000000e+04
-8.298900000000000000e+04
-7.932000000000000000e+04
-8.366100000000000000e+04
-8.876100000000000000e+04
-8.854400000000000000e+04
-8.332000000000000000e+04
-7.944300000000000000e+04
-8.364400000000000000e+04
-8.874200000000000000e+04
-8.845400000000000000e+04
-8.321400000000000000e+04
-7.964200000000000000e+04
-8.379400000000000000e+04
-8.902400000000000000e+04
-8.898000000000000000e+04
-8.375500000000000000e+04
-7.991900000000000000e+04
-8.400500000000000000e+04
-8.919100000000000000e+04
-8.911700000000000000e+04
-8.390400000000000000e+04
-7.985200000000000000e+04
-8.392800000000000000e+04
-8.919500000000000000e+04
-8.917900000000000000e+04
-8.398200000000000000e+04
-7.972600000000000000e+04
-8.364500000000000000e+04
-8.929100000000000000e+04
-8.947100000000000000e+04
-8.428100000000000000e+04
-8.009100000000000000e+04
-8.395500000000000000e+04
-8.933600000000000000e+04
-8.954200000000000000e+04
-8.443800000000000000e+04
-8.017000000000000000e+04
-8.384900000000000000e+04
-8.936900000000000000e+04
-8.950000000000000000e+04
-8.450100000000000000e+04
-8.040900000000000000e+04
-8.405000000000000000e+04
-8.949600000000000000e+04
-8.974600000000000000e+04
-8.450900000000000000e+04
-8.016200000000000000e+04
-8.372300000000000000e+04
-8.932600000000000000e+04
-8.999800000000000000e+04
-8.504000000000000000e+04
-8.035900000000000000e+04
-8.384100000000000000e+04
-8.957500000000000000e+04
-9.008400000000000000e+04
-8.511200000000000000e+04
-8.043400000000000000e+04
-8.394100000000000000e+04
-8.952400000000000000e+04
-9.020800000000000000e+04
-8.528400000000000000e+04
-8.055200000000000000e+04
-8.379600000000000000e+04
-8.931700000000000000e+04
-9.012700000000000000e+04
-8.532600000000000000e+04
-8.058200000000000000e+04
-8.380500000000000000e+04
-8.931700000000000000e+04
-9.002400000000000000e+04
-8.539900000000000000e+04
-8.070600000000000000e+04
-8.387700000000000000e+04
-8.957100000000000000e+04
-9.037300000000000000e+04
-8.556200000000000000e+04
-8.061100000000000000e+04
-8.359300000000000000e+04
-8.929600000000000000e+04
-9.025600000000000000e+04
-8.562100000000000000e+04
-8.067300000000000000e+04
-8.337300000000000000e+04
-8.912100000000000000e+04
-9.028600000000000000e+04
-8.555100000000000000e+04
-8.048500000000000000e+04
-8.329600000000000000e+04
-8.903400000000000000e+04
-9.029900000000000000e+04
-8.567100000000000000e+04
-8.054800000000000000e+04
-8.325400000000000000e+04
-8.903700000000000000e+04
-9.027900000000000000e+04
-8.571700000000000000e+04
-8.055000000000000000e+04
-8.320900000000000000e+04
-8.884900000000000000e+04
-9.013300000000000000e+04
-8.561200000000000000e+04
-8.045600000000000000e+04
-8.311100000000000000e+04
-8.906600000000000000e+04
-9.033400000000000000e+04
-8.585900000000000000e+04
-8.049400000000000000e+04
-8.290900000000000000e+04
-8.882900000000000000e+04
-9.008800000000000000e+04
-8.562600000000000000e+04
-8.037700000000000000e+04
-8.278800000000000000e+04
-8.879700000000000000e+04
-9.023200000000000000e+04
-8.582900000000000000e+04
-8.029000000000000000e+04
-8.238300000000000000e+04
-8.825200000000000000e+04
-8.979700000000000000e+04
-8.547900000000000000e+04
-7.987900000000000000e+04
-8.174400000000000000e+04
-8.742900000000000000e+04
-8.909300000000000000e+04
-8.507700000000000000e+04
-8.006700000000000000e+04
-8.268900000000000000e+04
-8.915700000000000000e+04
-9.100700000000000000e+04
-8.661800000000000000e+04
-8.084000000000000000e+04
-8.251100000000000000e+04
-8.820000000000000000e+04
-8.996400000000000000e+04
-8.577600000000000000e+04
-8.036100000000000000e+04
-8.221300000000000000e+04
-8.819200000000000000e+04
-9.018900000000000000e+04
-8.615200000000000000e+04
-8.048900000000000000e+04
-8.211100000000000000e+04
-8.806100000000000000e+04
-9.006100000000000000e+04
-8.591100000000000000e+04
-8.033400000000000000e+04
-8.207000000000000000e+04
-8.805500000000000000e+04
-9.015100000000000000e+04
-8.621900000000000000e+04
-8.057500000000000000e+04
-8.208600000000000000e+04
-8.807700000000000000e+04
-9.019300000000000000e+04
-8.623300000000000000e+04
-8.066500000000000000e+04
-8.206700000000000000e+04
-8.803400000000000000e+04
-9.023200000000000000e+04
-8.639000000000000000e+04
-8.059800000000000000e+04
-8.190200000000000000e+04
-8.793600000000000000e+04
-9.020600000000000000e+04
-8.642100000000000000e+04
-8.069800000000000000e+04
-8.186700000000000000e+04
-8.787800000000000000e+04
-9.014700000000000000e+04
-8.641000000000000000e+04
-8.061200000000000000e+04
-8.153600000000000000e+04
-8.759000000000000000e+04
-9.018200000000000000e+04
-8.656900000000000000e+04
-8.066600000000000000e+04
-8.155900000000000000e+04
-8.769600000000000000e+04
-9.025600000000000000e+04
-8.662100000000000000e+04
-8.071900000000000000e+04
-8.149500000000000000e+04
-8.758300000000000000e+04
-9.022500000000000000e+04
-8.653900000000000000e+04
-8.051600000000000000e+04
-8.135400000000000000e+04
-8.731700000000000000e+04
-8.991600000000000000e+04
-8.666800000000000000e+04
-8.080200000000000000e+04
-8.137300000000000000e+04
-8.730600000000000000e+04
-9.013400000000000000e+04
-8.680800000000000000e+04
-8.084200000000000000e+04
-8.122100000000000000e+04
-8.721800000000000000e+04
-9.014200000000000000e+04
-8.684900000000000000e+04
-8.086600000000000000e+04
-8.134600000000000000e+04
-8.732200000000000000e+04
-9.006800000000000000e+04
-8.668400000000000000e+04
-8.100700000000000000e+04
-8.136700000000000000e+04
-8.738400000000000000e+04
-9.032200000000000000e+04
-8.708200000000000000e+04
-8.106600000000000000e+04
-8.113300000000000000e+04
-8.719400000000000000e+04
-9.034600000000000000e+04
-8.724000000000000000e+04
-8.130500000000000000e+04
-8.115700000000000000e+04
-8.711600000000000000e+04
-9.031700000000000000e+04
-8.721000000000000000e+04
-8.124700000000000000e+04
-8.117100000000000000e+04
-8.707300000000000000e+04
-9.028600000000000000e+04
-8.744000000000000000e+04
-8.143700000000000000e+04
-8.121800000000000000e+04
-8.726300000000000000e+04
-9.056100000000000000e+04
-8.748600000000000000e+04
-8.138900000000000000e+04
-8.109200000000000000e+04
-8.707600000000000000e+04
-9.042900000000000000e+04
-8.752700000000000000e+04
-8.162300000000000000e+04
-8.120300000000000000e+04
-8.708600000000000000e+04
-9.058100000000000000e+04
-8.776100000000000000e+04
-8.170600000000000000e+04
-8.107500000000000000e+04
-8.697400000000000000e+04
-9.046400000000000000e+04
-8.769900000000000000e+04
-8.166200000000000000e+04
-8.117400000000000000e+04
-8.708900000000000000e+04
-9.065800000000000000e+04
-8.801300000000000000e+04
-8.189000000000000000e+04
-8.116600000000000000e+04
-8.714300000000000000e+04
-9.072400000000000000e+04
-8.822800000000000000e+04
-8.217200000000000000e+04
-8.128900000000000000e+04
-8.713000000000000000e+04
-9.082300000000000000e+04
-8.827100000000000000e+04
-8.229700000000000000e+04
-8.136600000000000000e+04
-8.729900000000000000e+04
-9.113700000000000000e+04
-8.877400000000000000e+04
-8.259300000000000000e+04
-8.136500000000000000e+04
-8.727500000000000000e+04
-9.095200000000000000e+04
-8.837900000000000000e+04
-8.254500000000000000e+04
-8.157200000000000000e+04
-8.721500000000000000e+04
-9.077200000000000000e+04
-8.810700000000000000e+04
-8.183900000000000000e+04
-7.984800000000000000e+04
-8.637300000000000000e+04
-9.170600000000000000e+04
-8.927400000000000000e+04
-8.297100000000000000e+04
-8.111600000000000000e+04
-8.668100000000000000e+04
-9.036000000000000000e+04
-8.786700000000000000e+04
-8.158200000000000000e+04
-7.996700000000000000e+04
-8.612600000000000000e+04
-8.889100000000000000e+04
-8.522200000000000000e+04
-8.065500000000000000e+04
-8.226200000000000000e+04
-8.624400000000000000e+04
-8.855900000000000000e+04
-8.626200000000000000e+04
-8.037300000000000000e+04
-7.706500000000000000e+04
-8.044600000000000000e+04
-8.540000000000000000e+04
-8.285400000000000000e+04
-7.749400000000000000e+04
-7.486000000000000000e+04
-7.789600000000000000e+04
-8.106200000000000000e+04
-8.287700000000000000e+04
-7.933200000000000000e+04
-7.764800000000000000e+04
-7.960700000000000000e+04
-7.682700000000000000e+04
-6.886700000000000000e+04
-6.309100000000000000e+04
-6.591200000000000000e+04
-7.916200000000000000e+04
-8.588900000000000000e+04
-8.599200000000000000e+04
-7.997400000000000000e+04
-7.970000000000000000e+04
-8.578400000000000000e+04
-8.224200000000000000e+04
-6.740900000000000000e+04
-5.809900000000000000e+04
-7.010800000000000000e+04
-8.329200000000000000e+04
-7.921700000000000000e+04
-6.805100000000000000e+04
-6.661400000000000000e+04
-7.730400000000000000e+04
-8.526200000000000000e+04
-7.802700000000000000e+04
-7.016700000000000000e+04
-6.550500000000000000e+04
-6.908700000000000000e+04
-7.966300000000000000e+04
-7.977400000000000000e+04
-7.318900000000000000e+04
-6.554400000000000000e+04
-6.640400000000000000e+04
-7.342800000000000000e+04
-7.564300000000000000e+04
-7.231400000000000000e+04
-6.088300000000000000e+04
-6.507900000000000000e+04
-6.860800000000000000e+04
-6.903200000000000000e+04
-7.105600000000000000e+04
-6.850400000000000000e+04
-6.865600000000000000e+04
-6.597300000000000000e+04
-6.761000000000000000e+04
-7.656900000000000000e+04
-6.744000000000000000e+04
-6.032700000000000000e+04
-7.493100000000000000e+04
-7.222700000000000000e+04
-6.913600000000000000e+04
-6.703400000000000000e+04
-6.144900000000000000e+04
-5.957700000000000000e+04
-7.193500000000000000e+04
-7.694600000000000000e+04
-5.903100000000000000e+04
-5.678500000000000000e+04
-6.700000000000000000e+04
-7.500600000000000000e+04
-7.559100000000000000e+04
-7.517100000000000000e+04
-6.786500000000000000e+04
-6.670600000000000000e+04
-7.245400000000000000e+04
-7.846100000000000000e+04
-6.991700000000000000e+04
-5.462200000000000000e+04
-6.337900000000000000e+04
-7.938700000000000000e+04
-7.728600000000000000e+04
-7.575800000000000000e+04
-6.995700000000000000e+04
-7.610100000000000000e+04
-7.880100000000000000e+04
-7.013800000000000000e+04
-7.391600000000000000e+04
-7.501700000000000000e+04
-7.645700000000000000e+04
-8.381000000000000000e+04
-8.318900000000000000e+04
-7.357700000000000000e+04
-6.929800000000000000e+04
-7.294700000000000000e+04
-7.760700000000000000e+04
-8.197100000000000000e+04
-7.862300000000000000e+04
-7.297200000000000000e+04
-7.603300000000000000e+04
-8.046200000000000000e+04
-8.030400000000000000e+04
-7.499700000000000000e+04
-7.050700000000000000e+04
-7.534500000000000000e+04
-8.101700000000000000e+04
-7.975400000000000000e+04
-7.410100000000000000e+04
-7.052900000000000000e+04
-7.243600000000000000e+04
-7.576100000000000000e+04
-7.974600000000000000e+04
-7.514700000000000000e+04
-7.237700000000000000e+04
-7.699600000000000000e+04
-8.141600000000000000e+04
-8.056700000000000000e+04
-7.476900000000000000e+04
-7.083700000000000000e+04
-7.486600000000000000e+04
-8.000100000000000000e+04
-8.030100000000000000e+04
-7.521700000000000000e+04
-7.077400000000000000e+04
-7.359600000000000000e+04
-7.787800000000000000e+04
-8.009600000000000000e+04
-7.604900000000000000e+04
-7.173200000000000000e+04
-7.524600000000000000e+04
-8.087900000000000000e+04
-8.129600000000000000e+04
-7.577700000000000000e+04
-7.127100000000000000e+04
-7.423600000000000000e+04
-7.956100000000000000e+04
-8.205500000000000000e+04
-7.719600000000000000e+04
-7.220000000000000000e+04
-7.583000000000000000e+04
-8.134300000000000000e+04
-8.167700000000000000e+04
-7.648400000000000000e+04
-7.206600000000000000e+04
-7.611000000000000000e+04
-8.191000000000000000e+04
-8.239100000000000000e+04
-7.742600000000000000e+04
-7.290100000000000000e+04
-7.661800000000000000e+04
-8.232400000000000000e+04
-8.291700000000000000e+04
-7.796900000000000000e+04
-7.349300000000000000e+04
-7.733600000000000000e+04
-8.361600000000000000e+04
-8.508700000000000000e+04
-8.089100000000000000e+04
-7.663500000000000000e+04
-8.020900000000000000e+04
-8.589100000000000000e+04
-8.645900000000000000e+04
-8.129500000000000000e+04
-7.631600000000000000e+04
-7.981700000000000000e+04
-8.582800000000000000e+04
-8.666300000000000000e+04
-8.157200000000000000e+04
-7.645900000000000000e+04
-7.963300000000000000e+04
-8.558900000000000000e+04
-8.692000000000000000e+04
-8.203400000000000000e+04
-7.686000000000000000e+04
-8.002700000000000000e+04
-8.624200000000000000e+04
-8.741900000000000000e+04
-8.240400000000000000e+04
-7.722000000000000000e+04
-8.043800000000000000e+04
-8.654900000000000000e+04
-8.760900000000000000e+04
-8.261400000000000000e+04
-7.730900000000000000e+04
-8.057200000000000000e+04
-8.679500000000000000e+04
-8.784500000000000000e+04
-8.289300000000000000e+04
-7.754700000000000000e+04
-8.053800000000000000e+04
-8.667600000000000000e+04
-8.782700000000000000e+04
-8.292400000000000000e+04
-7.755900000000000000e+04
-8.057000000000000000e+04
-8.672000000000000000e+04
-8.807900000000000000e+04
-8.325800000000000000e+04
-7.777400000000000000e+04
-8.052000000000000000e+04
-8.662200000000000000e+04
-8.811300000000000000e+04
-8.342300000000000000e+04
-7.798200000000000000e+04
-8.074700000000000000e+04
-8.686900000000000000e+04
-8.825000000000000000e+04
-8.359600000000000000e+04
-7.807600000000000000e+04
-8.065600000000000000e+04
-8.689400000000000000e+04
-8.846700000000000000e+04
-8.388600000000000000e+04
-7.840000000000000000e+04
-8.081100000000000000e+04
-8.704300000000000000e+04
-8.866900000000000000e+04
-8.421000000000000000e+04
-7.864200000000000000e+04
-8.097900000000000000e+04
-8.718200000000000000e+04
-8.883400000000000000e+04
-8.451600000000000000e+04
-7.889500000000000000e+04
-8.116600000000000000e+04
-8.743500000000000000e+04
-8.924500000000000000e+04
-8.496200000000000000e+04
-7.931100000000000000e+04
-8.140700000000000000e+04
-8.769100000000000000e+04
-8.953800000000000000e+04
-8.528200000000000000e+04
-7.952100000000000000e+04
-8.149800000000000000e+04
-8.767400000000000000e+04
-8.964200000000000000e+04
-8.560200000000000000e+04
-7.986900000000000000e+04
-8.170200000000000000e+04
-8.779000000000000000e+04
-8.984900000000000000e+04
-8.580900000000000000e+04
-7.991400000000000000e+04
-8.172000000000000000e+04
-8.792100000000000000e+04
-8.991100000000000000e+04
-8.592300000000000000e+04
-8.020800000000000000e+04
-8.183200000000000000e+04
-8.797600000000000000e+04
-9.016400000000000000e+04
-8.614100000000000000e+04
-8.026700000000000000e+04
-8.181900000000000000e+04
-8.796600000000000000e+04
-9.026200000000000000e+04
-8.636000000000000000e+04
-8.034800000000000000e+04
-8.185400000000000000e+04
-8.814400000000000000e+04
-9.034200000000000000e+04
-8.650100000000000000e+04
-8.061100000000000000e+04
-8.188800000000000000e+04
-8.813100000000000000e+04
-9.048200000000000000e+04
-8.668600000000000000e+04
-8.065900000000000000e+04
-8.190900000000000000e+04
-8.823200000000000000e+04
-9.064700000000000000e+04
-8.679600000000000000e+04
-8.081200000000000000e+04
-8.170300000000000000e+04
-8.785400000000000000e+04
-9.053600000000000000e+04
-8.692600000000000000e+04
-8.085900000000000000e+04
-8.172900000000000000e+04
-8.794500000000000000e+04
-9.062100000000000000e+04
-8.708500000000000000e+04
-8.098500000000000000e+04
-8.167100000000000000e+04
-8.795400000000000000e+04
-9.067600000000000000e+04
-8.714100000000000000e+04
-8.100700000000000000e+04
-8.172900000000000000e+04
-8.798000000000000000e+04
-9.068100000000000000e+04
-8.732500000000000000e+04
-8.132200000000000000e+04
-8.177800000000000000e+04
-8.792200000000000000e+04
-9.077300000000000000e+04
-8.730600000000000000e+04
-8.115500000000000000e+04
-8.171700000000000000e+04
-8.791600000000000000e+04
-9.084200000000000000e+04
-8.754100000000000000e+04
-8.140100000000000000e+04
-8.168600000000000000e+04
-8.776500000000000000e+04
-9.086400000000000000e+04
-8.767500000000000000e+04
-8.156600000000000000e+04
-8.162700000000000000e+04
-8.754900000000000000e+04
-9.043900000000000000e+04
-8.704800000000000000e+04
-8.081900000000000000e+04
-8.073000000000000000e+04
-8.668200000000000000e+04
-8.990500000000000000e+04
-8.718000000000000000e+04
-8.166900000000000000e+04
-8.223600000000000000e+04
-8.857700000000000000e+04
-9.162500000000000000e+04
-8.842900000000000000e+04
-8.218400000000000000e+04
-8.181100000000000000e+04
-8.775000000000000000e+04
-9.095800000000000000e+04
-8.801200000000000000e+04
-8.183600000000000000e+04
-8.150100000000000000e+04
-8.767600000000000000e+04
-9.096900000000000000e+04
-8.794000000000000000e+04
-8.191700000000000000e+04
-8.157700000000000000e+04
-8.760700000000000000e+04
-9.093900000000000000e+04
-8.818100000000000000e+04
-8.209000000000000000e+04
-8.163800000000000000e+04
-8.770900000000000000e+04
-9.114600000000000000e+04
-8.830900000000000000e+04
-8.214200000000000000e+04
-8.155700000000000000e+04
-8.743600000000000000e+04
-9.098200000000000000e+04
-8.842300000000000000e+04
-8.225400000000000000e+04
-8.140100000000000000e+04
-8.739500000000000000e+04
-9.104300000000000000e+04
-8.843400000000000000e+04
-8.231600000000000000e+04
-8.144400000000000000e+04
-8.735600000000000000e+04
-9.101700000000000000e+04
-8.850900000000000000e+04
-8.257100000000000000e+04
-8.157400000000000000e+04
-8.732200000000000000e+04
-9.106900000000000000e+04
-8.871400000000000000e+04
-8.257000000000000000e+04
-8.154300000000000000e+04
-8.732200000000000000e+04
-9.115900000000000000e+04
-8.890800000000000000e+04
-8.268400000000000000e+04
-8.136700000000000000e+04
-8.719500000000000000e+04
-9.111600000000000000e+04
-8.888600000000000000e+04
-8.273700000000000000e+04
-8.136600000000000000e+04
-8.717500000000000000e+04
-9.114600000000000000e+04
-8.900200000000000000e+04
-8.286500000000000000e+04
-8.138200000000000000e+04
-8.711500000000000000e+04
-9.101300000000000000e+04
-8.881100000000000000e+04
-8.292400000000000000e+04
-8.145300000000000000e+04
-8.701400000000000000e+04
-9.119900000000000000e+04
-8.917500000000000000e+04
-8.297200000000000000e+04
-8.140600000000000000e+04
-8.721100000000000000e+04
-9.128500000000000000e+04
-8.933900000000000000e+04
-8.323500000000000000e+04
-8.143700000000000000e+04
-8.712000000000000000e+04
-9.131100000000000000e+04
-8.952100000000000000e+04
-8.346600000000000000e+04
-8.150900000000000000e+04
-8.712700000000000000e+04
-9.142000000000000000e+04
-8.962700000000000000e+04
-8.360100000000000000e+04
-8.151400000000000000e+04
-8.703100000000000000e+04
-9.131300000000000000e+04
-8.977800000000000000e+04
-8.379900000000000000e+04
-8.161600000000000000e+04
-8.716800000000000000e+04
-9.156600000000000000e+04
-8.985900000000000000e+04
-8.379100000000000000e+04
-8.170700000000000000e+04
-8.719700000000000000e+04
-9.165300000000000000e+04
-9.008300000000000000e+04
-8.395900000000000000e+04
-8.154000000000000000e+04
-8.705400000000000000e+04
-9.174100000000000000e+04
-9.036700000000000000e+04
-8.439700000000000000e+04
-8.181100000000000000e+04
-8.708000000000000000e+04
-9.158100000000000000e+04
-9.010700000000000000e+04
-8.411100000000000000e+04
-8.161500000000000000e+04
-8.690700000000000000e+04
-9.155500000000000000e+04
-9.026900000000000000e+04
-8.429600000000000000e+04
-8.156300000000000000e+04
-8.687500000000000000e+04
-9.160800000000000000e+04
-9.041300000000000000e+04
-8.447000000000000000e+04
-8.157700000000000000e+04
-8.680300000000000000e+04
-9.153100000000000000e+04
-9.040000000000000000e+04
-8.441400000000000000e+04
-8.141800000000000000e+04
-8.656900000000000000e+04
-9.136500000000000000e+04
-9.017400000000000000e+04
-8.425900000000000000e+04
-8.133400000000000000e+04
-8.644300000000000000e+04
-9.142400000000000000e+04
-9.043400000000000000e+04
-8.453900000000000000e+04
-8.139600000000000000e+04
-8.653600000000000000e+04
-9.149900000000000000e+04
-9.053900000000000000e+04
-8.467200000000000000e+04
-8.131700000000000000e+04
-8.642200000000000000e+04
-9.139700000000000000e+04
-9.039700000000000000e+04
-8.450100000000000000e+04
-8.116200000000000000e+04
-8.606200000000000000e+04
-9.117600000000000000e+04
-9.050100000000000000e+04
-8.474900000000000000e+04
-8.124900000000000000e+04
-8.587200000000000000e+04
-9.091200000000000000e+04
-8.997900000000000000e+04
-8.390700000000000000e+04
-8.024600000000000000e+04
-8.497700000000000000e+04
-9.033900000000000000e+04
-9.028600000000000000e+04
-8.534100000000000000e+04
-8.218400000000000000e+04
-8.693800000000000000e+04
-9.194900000000000000e+04
-9.123700000000000000e+04
-8.537600000000000000e+04
-8.138900000000000000e+04
-8.578600000000000000e+04
-9.087900000000000000e+04
-9.050100000000000000e+04
-8.505400000000000000e+04
-8.126300000000000000e+04
-8.576900000000000000e+04
-9.112700000000000000e+04
-9.083900000000000000e+04
-8.522300000000000000e+04
-8.124600000000000000e+04
-8.569400000000000000e+04
-9.105000000000000000e+04
-9.081500000000000000e+04
-8.535500000000000000e+04
-8.125400000000000000e+04
-8.567400000000000000e+04
-9.114500000000000000e+04
-9.078900000000000000e+04
-8.506600000000000000e+04
-8.096600000000000000e+04
-8.535900000000000000e+04
-9.076900000000000000e+04
-9.102100000000000000e+04
-8.559700000000000000e+04
-8.125500000000000000e+04
-8.528100000000000000e+04
-9.082800000000000000e+04
-9.095900000000000000e+04
-8.560000000000000000e+04
-8.130400000000000000e+04
-8.536400000000000000e+04
-9.090800000000000000e+04
-9.099500000000000000e+04
-8.554000000000000000e+04
-8.123200000000000000e+04
-8.533600000000000000e+04
-9.101700000000000000e+04
-9.127800000000000000e+04
-8.587200000000000000e+04
-8.125600000000000000e+04
-8.516600000000000000e+04
-9.097800000000000000e+04
-9.134100000000000000e+04
-8.597200000000000000e+04
-8.142600000000000000e+04
-8.533800000000000000e+04
-9.093600000000000000e+04
-9.121400000000000000e+04
-8.588200000000000000e+04
-8.125400000000000000e+04
-8.531900000000000000e+04
-9.100600000000000000e+04
-9.134900000000000000e+04
-8.629700000000000000e+04
-8.169200000000000000e+04
-8.537200000000000000e+04
-9.115200000000000000e+04
-9.159400000000000000e+04
-8.647800000000000000e+04
-8.169700000000000000e+04
-8.529700000000000000e+04
-9.111500000000000000e+04
-9.158700000000000000e+04
-8.622700000000000000e+04
-8.168400000000000000e+04
-8.548900000000000000e+04
-9.111400000000000000e+04
-9.155900000000000000e+04
-8.641400000000000000e+04
-8.175900000000000000e+04
-8.543400000000000000e+04
-9.138400000000000000e+04
-9.196600000000000000e+04
-8.692400000000000000e+04
-8.195500000000000000e+04
-8.516300000000000000e+04
-9.105400000000000000e+04
-9.188100000000000000e+04
-8.687900000000000000e+04
-8.188300000000000000e+04
-8.504400000000000000e+04
-9.092700000000000000e+04
-9.178100000000000000e+04
-8.684400000000000000e+04
-8.186900000000000000e+04
-8.470800000000000000e+04
-9.050800000000000000e+04
-9.152200000000000000e+04
-8.691100000000000000e+04
-8.179100000000000000e+04
-8.485400000000000000e+04
-9.091100000000000000e+04
-9.166400000000000000e+04
-8.651900000000000000e+04
-8.172700000000000000e+04
-8.487900000000000000e+04
-9.091200000000000000e+04
-9.224000000000000000e+04
-8.736200000000000000e+04
-8.183900000000000000e+04
-8.460400000000000000e+04
-9.094600000000000000e+04
-9.236900000000000000e+04
-8.763200000000000000e+04
-8.230400000000000000e+04
-8.510300000000000000e+04
-9.107400000000000000e+04
-9.257100000000000000e+04
-8.767600000000000000e+04
-8.236200000000000000e+04
-8.519700000000000000e+04
-9.137000000000000000e+04
-9.299900000000000000e+04
-8.836600000000000000e+04
-8.276900000000000000e+04
-8.517900000000000000e+04
-9.109700000000000000e+04
-9.270900000000000000e+04
-8.860800000000000000e+04
-8.272400000000000000e+04
-8.545900000000000000e+04
-9.198600000000000000e+04
-9.320400000000000000e+04
-8.857400000000000000e+04
-8.306400000000000000e+04
-8.565800000000000000e+04
-9.204400000000000000e+04
-9.371600000000000000e+04
-8.933700000000000000e+04
-8.409900000000000000e+04
-8.635700000000000000e+04
-9.223800000000000000e+04
-9.389500000000000000e+04
-8.937600000000000000e+04
-8.370700000000000000e+04
-8.630400000000000000e+04
-9.234400000000000000e+04
-9.401300000000000000e+04
-8.990700000000000000e+04
-8.376500000000000000e+04
-8.529200000000000000e+04
-9.215200000000000000e+04
-9.475800000000000000e+04
-9.031400000000000000e+04
-8.425100000000000000e+04
-8.594000000000000000e+04
-9.206900000000000000e+04
-9.384300000000000000e+04
-8.969900000000000000e+04
-8.352000000000000000e+04
-8.501400000000000000e+04
-9.147100000000000000e+04
-9.392300000000000000e+04
-9.030100000000000000e+04
-8.496700000000000000e+04
-8.698500000000000000e+04
-9.325200000000000000e+04
-9.509000000000000000e+04
-9.084400000000000000e+04
-8.422200000000000000e+04
-8.436700000000000000e+04
-9.049600000000000000e+04
-9.456100000000000000e+04
-9.150600000000000000e+04
-8.557000000000000000e+04
-8.663400000000000000e+04
-9.300200000000000000e+04
-9.505200000000000000e+04
-9.106900000000000000e+04
-8.521300000000000000e+04
-8.629100000000000000e+04
-9.234200000000000000e+04
-9.470900000000000000e+04
-9.092400000000000000e+04
-8.515100000000000000e+04
-8.620900000000000000e+04
-9.237100000000000000e+04
-9.496100000000000000e+04
-9.092800000000000000e+04
-8.481300000000000000e+04
-8.557000000000000000e+04
-9.094900000000000000e+04
-9.356200000000000000e+04
-9.178600000000000000e+04
-8.615200000000000000e+04
-8.643600000000000000e+04
-9.186300000000000000e+04
-9.439600000000000000e+04
-9.185100000000000000e+04
-8.589900000000000000e+04
-8.610400000000000000e+04
-9.153900000000000000e+04
-9.379900000000000000e+04
-9.032000000000000000e+04
-8.515400000000000000e+04
-8.681700000000000000e+04
-9.310400000000000000e+04
-9.568000000000000000e+04
-9.166300000000000000e+04
-8.547400000000000000e+04
-8.636900000000000000e+04
-9.202400000000000000e+04
-9.528900000000000000e+04
-9.169200000000000000e+04
-8.464700000000000000e+04
-8.385200000000000000e+04
-9.053700000000000000e+04
-9.490100000000000000e+04
-9.281500000000000000e+04
-8.705700000000000000e+04
-8.715000000000000000e+04
-9.313800000000000000e+04
-9.562400000000000000e+04
-9.114200000000000000e+04
-8.376900000000000000e+04
-8.395300000000000000e+04
-9.109300000000000000e+04
-9.536200000000000000e+04
-9.242900000000000000e+04
-8.635100000000000000e+04
-8.451900000000000000e+04
-8.789200000000000000e+04
-9.224600000000000000e+04
-9.167600000000000000e+04
-8.626100000000000000e+04
-8.448800000000000000e+04
-8.874700000000000000e+04
-9.037900000000000000e+04
-8.762700000000000000e+04
-8.444200000000000000e+04
-8.598900000000000000e+04
-9.155800000000000000e+04
-9.077600000000000000e+04
-8.532600000000000000e+04
-8.059900000000000000e+04
-8.328800000000000000e+04
-9.253900000000000000e+04
-9.460500000000000000e+04
-9.039600000000000000e+04
-8.326500000000000000e+04
-7.802100000000000000e+04
-8.126200000000000000e+04
-9.055100000000000000e+04
-9.005400000000000000e+04
-7.656600000000000000e+04
-7.363400000000000000e+04
-8.576300000000000000e+04
-9.563700000000000000e+04
-9.101900000000000000e+04
-7.834700000000000000e+04
-7.807700000000000000e+04
-8.779700000000000000e+04
-9.238100000000000000e+04
-8.710700000000000000e+04
-7.688800000000000000e+04
-7.822900000000000000e+04
-9.030100000000000000e+04
-8.935700000000000000e+04
-7.476700000000000000e+04
-7.286600000000000000e+04
-7.803700000000000000e+04
-8.161900000000000000e+04
-8.473700000000000000e+04
-7.755600000000000000e+04
-7.041600000000000000e+04
-6.745500000000000000e+04
-7.906700000000000000e+04
-9.795900000000000000e+04
-9.701400000000000000e+04
-7.934900000000000000e+04
-6.726800000000000000e+04
-6.903000000000000000e+04
-8.381500000000000000e+04
-8.000200000000000000e+04
