-2.890610000000000000e+05
-2.840830000000000000e+05
-2.758020000000000000e+05
-2.770820000000000000e+05
-2.854460000000000000e+05
-2.887660000000000000e+05
-2.838940000000000000e+05
-2.760880000000000000e+05
-2.773920000000000000e+05
-2.853500000000000000e+05
-2.884820000000000000e+05
-2.837620000000000000e+05
-2.758200000000000000e+05
-2.768590000000000000e+05
-2.851420000000000000e+05
-2.887470000000000000e+05
-2.838560000000000000e+05
-2.757830000000000000e+05
-2.764960000000000000e+05
-2.845620000000000000e+05
-2.882310000000000000e+05
-2.838440000000000000e+05
-2.758170000000000000e+05
-2.764080000000000000e+05
-2.844350000000000000e+05
-2.883840000000000000e+05
-2.838120000000000000e+05
-2.759220000000000000e+05
-2.763890000000000000e+05
-2.840350000000000000e+05
-2.880700000000000000e+05
-2.838800000000000000e+05
-2.759090000000000000e+05
-2.760040000000000000e+05
-2.839970000000000000e+05
-2.881040000000000000e+05
-2.840510000000000000e+05
-2.761910000000000000e+05
-2.764260000000000000e+05
-2.844670000000000000e+05
-2.887740000000000000e+05
-2.843120000000000000e+05
-2.759280000000000000e+05
-2.751840000000000000e+05
-2.826410000000000000e+05
-2.869010000000000000e+05
-2.829790000000000000e+05
-2.753180000000000000e+05
-2.752980000000000000e+05
-2.832120000000000000e+05
-2.873490000000000000e+05
-2.835990000000000000e+05
-2.757440000000000000e+05
-2.754130000000000000e+05
-2.833170000000000000e+05
-2.875130000000000000e+05
-2.837730000000000000e+05
-2.756660000000000000e+05
-2.751660000000000000e+05
-2.831140000000000000e+05
-2.875370000000000000e+05
-2.836890000000000000e+05
-2.755420000000000000e+05
-2.747520000000000000e+05
-2.825720000000000000e+05
-2.870610000000000000e+05
-2.835250000000000000e+05
-2.755220000000000000e+05
-2.745860000000000000e+05
-2.823810000000000000e+05
-2.869970000000000000e+05
-2.835830000000000000e+05
-2.756090000000000000e+05
-2.745790000000000000e+05
-2.822400000000000000e+05
-2.867670000000000000e+05
-2.834860000000000000e+05
-2.755170000000000000e+05
-2.741500000000000000e+05
-2.818260000000000000e+05
-2.867100000000000000e+05
-2.836620000000000000e+05
-2.755060000000000000e+05
-2.741490000000000000e+05
-2.818690000000000000e+05
-2.866120000000000000e+05
-2.834650000000000000e+05
-2.754950000000000000e+05
-2.739640000000000000e+05
-2.816720000000000000e+05
-2.867030000000000000e+05
-2.837120000000000000e+05
-2.756690000000000000e+05
-2.736870000000000000e+05
-2.813660000000000000e+05
-2.864420000000000000e+05
-2.835790000000000000e+05
-2.757950000000000000e+05
-2.737140000000000000e+05
-2.811460000000000000e+05
-2.863170000000000000e+05
-2.836380000000000000e+05
-2.756920000000000000e+05
-2.734660000000000000e+05
-2.809620000000000000e+05
-2.864670000000000000e+05
-2.839440000000000000e+05
-2.757360000000000000e+05
-2.732720000000000000e+05
-2.808340000000000000e+05
-2.862470000000000000e+05
-2.837140000000000000e+05
-2.757970000000000000e+05
-2.732400000000000000e+05
-2.805660000000000000e+05
-2.861490000000000000e+05
-2.836090000000000000e+05
-2.755260000000000000e+05
-2.730190000000000000e+05
-2.803730000000000000e+05
-2.863620000000000000e+05
-2.838970000000000000e+05
-2.758600000000000000e+05
-2.729480000000000000e+05
-2.800710000000000000e+05
-2.859380000000000000e+05
-2.837680000000000000e+05
-2.758990000000000000e+05
-2.731430000000000000e+05
-2.802730000000000000e+05
-2.858430000000000000e+05
-2.835450000000000000e+05
-2.757310000000000000e+05
-2.728520000000000000e+05
-2.801140000000000000e+05
-2.860170000000000000e+05
-2.837960000000000000e+05
-2.757740000000000000e+05
-2.725650000000000000e+05
-2.795590000000000000e+05
-2.857780000000000000e+05
-2.840190000000000000e+05
-2.760540000000000000e+05
-2.725250000000000000e+05
-2.796090000000000000e+05
-2.858640000000000000e+05
-2.840470000000000000e+05
-2.763120000000000000e+05
-2.726860000000000000e+05
-2.795190000000000000e+05
-2.856390000000000000e+05
-2.839070000000000000e+05
-2.761990000000000000e+05
-2.723880000000000000e+05
-2.792440000000000000e+05
-2.854910000000000000e+05
-2.839950000000000000e+05
-2.763240000000000000e+05
-2.725460000000000000e+05
-2.792520000000000000e+05
-2.855380000000000000e+05
-2.842070000000000000e+05
-2.764310000000000000e+05
-2.722260000000000000e+05
-2.790570000000000000e+05
-2.856120000000000000e+05
-2.842050000000000000e+05
-2.764060000000000000e+05
-2.722260000000000000e+05
-2.787340000000000000e+05
-2.853440000000000000e+05
-2.841920000000000000e+05
-2.766340000000000000e+05
-2.722070000000000000e+05
-2.786540000000000000e+05
-2.852920000000000000e+05
-2.843420000000000000e+05
-2.768160000000000000e+05
-2.723370000000000000e+05
-2.784360000000000000e+05
-2.851520000000000000e+05
-2.846170000000000000e+05
-2.771610000000000000e+05
-2.722960000000000000e+05
-2.785680000000000000e+05
-2.852240000000000000e+05
-2.843960000000000000e+05
-2.771610000000000000e+05
-2.723370000000000000e+05
-2.782300000000000000e+05
-2.848530000000000000e+05
-2.844110000000000000e+05
-2.771490000000000000e+05
-2.724990000000000000e+05
-2.788080000000000000e+05
-2.854260000000000000e+05
-2.852090000000000000e+05
-2.780930000000000000e+05
-2.730170000000000000e+05
-2.787760000000000000e+05
-2.851620000000000000e+05
-2.840970000000000000e+05
-2.766760000000000000e+05
-2.715500000000000000e+05
-2.774490000000000000e+05
-2.845550000000000000e+05
-2.844620000000000000e+05
-2.777340000000000000e+05
-2.723490000000000000e+05
-2.778730000000000000e+05
-2.850990000000000000e+05
-2.849200000000000000e+05
-2.780160000000000000e+05
-2.726610000000000000e+05
-2.778880000000000000e+05
-2.848560000000000000e+05
-2.848910000000000000e+05
-2.780770000000000000e+05
-2.724430000000000000e+05
-2.777690000000000000e+05
-2.849540000000000000e+05
-2.852230000000000000e+05
-2.784070000000000000e+05
-2.725360000000000000e+05
-2.777270000000000000e+05
-2.850320000000000000e+05
-2.852210000000000000e+05
-2.784790000000000000e+05
-2.725520000000000000e+05
-2.776020000000000000e+05
-2.848210000000000000e+05
-2.853390000000000000e+05
-2.786470000000000000e+05
-2.726190000000000000e+05
-2.775430000000000000e+05
-2.849310000000000000e+05
-2.854860000000000000e+05
-2.788060000000000000e+05
-2.727160000000000000e+05
-2.775110000000000000e+05
-2.847210000000000000e+05
-2.855910000000000000e+05
-2.791230000000000000e+05
-2.729170000000000000e+05
-2.771190000000000000e+05
-2.846500000000000000e+05
-2.855740000000000000e+05
-2.790890000000000000e+05
-2.729170000000000000e+05
-2.774450000000000000e+05
-2.848740000000000000e+05
-2.856840000000000000e+05
-2.792790000000000000e+05
-2.730830000000000000e+05
-2.774260000000000000e+05
-2.849170000000000000e+05
-8.180000000000000000e+04
-8.668800000000000000e+04
-8.533800000000000000e+04
-7.913300000000000000e+04
-7.610600000000000000e+04
-8.147300000000000000e+04
-8.636900000000000000e+04
-8.537700000000000000e+04
-7.927600000000000000e+04
-7.607700000000000000e+04
-8.131700000000000000e+04
-8.657100000000000000e+04
-8.581400000000000000e+04
-7.986800000000000000e+04
-7.632500000000000000e+04
-8.093500000000000000e+04
-8.515400000000000000e+04
-8.374900000000000000e+04
-7.882600000000000000e+04
-7.571600000000000000e+04
-7.930600000000000000e+04
-8.319400000000000000e+04
-8.447600000000000000e+04
-8.093000000000000000e+04
-7.746700000000000000e+04
-8.209700000000000000e+04
-8.675200000000000000e+04
-8.561200000000000000e+04
-7.976900000000000000e+04
-7.648900000000000000e+04
-8.140100000000000000e+04
-8.640300000000000000e+04
-8.557500000000000000e+04
-7.967200000000000000e+04
-7.598700000000000000e+04
-8.107200000000000000e+04
-8.594700000000000000e+04
-8.442900000000000000e+04
-7.846400000000000000e+04
-7.618500000000000000e+04
-8.193400000000000000e+04
-8.710700000000000000e+04
-8.631300000000000000e+04
-7.984700000000000000e+04
-7.567600000000000000e+04
-8.082900000000000000e+04
-8.615100000000000000e+04
-8.560800000000000000e+04
-7.996600000000000000e+04
-7.603200000000000000e+04
-8.022900000000000000e+04
-8.406400000000000000e+04
-8.224600000000000000e+04
-7.935300000000000000e+04
-7.746600000000000000e+04
-8.087200000000000000e+04
-8.507900000000000000e+04
-8.541900000000000000e+04
-8.104900000000000000e+04
-7.643600000000000000e+04
-7.999900000000000000e+04
-8.392300000000000000e+04
-8.333800000000000000e+04
-7.886900000000000000e+04
-7.662200000000000000e+04
-8.089500000000000000e+04
-8.592900000000000000e+04
-8.576900000000000000e+04
-8.037400000000000000e+04
-7.598000000000000000e+04
-7.994600000000000000e+04
-8.547900000000000000e+04
-8.567300000000000000e+04
-8.032800000000000000e+04
-7.539900000000000000e+04
-7.914700000000000000e+04
-8.496300000000000000e+04
-8.536600000000000000e+04
-8.001100000000000000e+04
-7.517700000000000000e+04
-7.886300000000000000e+04
-8.507500000000000000e+04
-8.546300000000000000e+04
-8.006900000000000000e+04
-7.516000000000000000e+04
-7.892900000000000000e+04
-8.493800000000000000e+04
-8.567700000000000000e+04
-8.053700000000000000e+04
-7.548200000000000000e+04
-7.878000000000000000e+04
-8.482200000000000000e+04
-8.566700000000000000e+04
-8.023200000000000000e+04
-7.509600000000000000e+04
-7.858000000000000000e+04
-8.449000000000000000e+04
-8.526900000000000000e+04
-8.069700000000000000e+04
-7.559500000000000000e+04
-7.860800000000000000e+04
-8.447700000000000000e+04
-8.550000000000000000e+04
-8.066500000000000000e+04
-7.549900000000000000e+04
-7.846700000000000000e+04
-8.458200000000000000e+04
-8.574100000000000000e+04
-8.077900000000000000e+04
-7.533200000000000000e+04
-7.813200000000000000e+04
-8.417100000000000000e+04
-8.573600000000000000e+04
-8.134400000000000000e+04
-7.612100000000000000e+04
-7.860300000000000000e+04
-8.418400000000000000e+04
-8.557200000000000000e+04
-8.135900000000000000e+04
-7.597700000000000000e+04
-7.834200000000000000e+04
-8.433200000000000000e+04
-8.581700000000000000e+04
-8.140800000000000000e+04
-7.594700000000000000e+04
-7.825300000000000000e+04
-8.441600000000000000e+04
-8.615100000000000000e+04
-8.179600000000000000e+04
-7.643100000000000000e+04
-7.844400000000000000e+04
-8.436900000000000000e+04
-8.601700000000000000e+04
-8.170900000000000000e+04
-7.624200000000000000e+04
-7.839400000000000000e+04
-8.458200000000000000e+04
-8.664700000000000000e+04
-8.261500000000000000e+04
-7.703900000000000000e+04
-7.872900000000000000e+04
-8.434100000000000000e+04
-8.576700000000000000e+04
-8.136500000000000000e+04
-7.538400000000000000e+04
-7.684900000000000000e+04
-8.352000000000000000e+04
-8.600200000000000000e+04
-8.212400000000000000e+04
-7.642600000000000000e+04
-7.809700000000000000e+04
-8.396600000000000000e+04
-8.606100000000000000e+04
-8.231800000000000000e+04
-7.637600000000000000e+04
-7.747200000000000000e+04
-8.327700000000000000e+04
-8.564500000000000000e+04
-8.225200000000000000e+04
-7.681100000000000000e+04
-7.817100000000000000e+04
-8.435800000000000000e+04
-8.629700000000000000e+04
-8.220000000000000000e+04
-7.657700000000000000e+04
-7.765900000000000000e+04
-8.369100000000000000e+04
-8.594100000000000000e+04
-8.219400000000000000e+04
-7.674400000000000000e+04
-7.781100000000000000e+04
-8.367200000000000000e+04
-8.615100000000000000e+04
-8.272400000000000000e+04
-7.688100000000000000e+04
-7.757400000000000000e+04
-8.346900000000000000e+04
-8.588800000000000000e+04
-8.269800000000000000e+04
-7.718900000000000000e+04
-7.769400000000000000e+04
-8.369900000000000000e+04
-8.604200000000000000e+04
-8.199200000000000000e+04
-7.683300000000000000e+04
-7.792700000000000000e+04
-8.377300000000000000e+04
-8.642100000000000000e+04
-8.293700000000000000e+04
-7.665400000000000000e+04
-7.712900000000000000e+04
-8.306000000000000000e+04
-8.612400000000000000e+04
-8.309600000000000000e+04
-7.730800000000000000e+04
-7.690500000000000000e+04
-8.309100000000000000e+04
-8.626400000000000000e+04
-8.291100000000000000e+04
-7.696100000000000000e+04
-7.715100000000000000e+04
-8.297000000000000000e+04
-8.620700000000000000e+04
-8.308900000000000000e+04
-7.718100000000000000e+04
-7.707500000000000000e+04
-8.286400000000000000e+04
-8.612700000000000000e+04
-8.306900000000000000e+04
-7.704100000000000000e+04
-7.675200000000000000e+04
-8.269600000000000000e+04
-8.612100000000000000e+04
-8.310500000000000000e+04
-7.713800000000000000e+04
-7.671400000000000000e+04
-8.237200000000000000e+04
-8.547000000000000000e+04
-8.310400000000000000e+04
-7.727700000000000000e+04
-7.689900000000000000e+04
-8.294400000000000000e+04
-8.624200000000000000e+04
-8.337200000000000000e+04
-7.754000000000000000e+04
-7.689100000000000000e+04
-8.244500000000000000e+04
-8.597100000000000000e+04
-8.350400000000000000e+04
-7.743400000000000000e+04
-7.657900000000000000e+04
-8.232200000000000000e+04
-8.572000000000000000e+04
-8.324100000000000000e+04
-7.726900000000000000e+04
-7.646500000000000000e+04
-8.204100000000000000e+04
-8.583100000000000000e+04
-8.346800000000000000e+04
-7.733100000000000000e+04
-7.612200000000000000e+04
-8.195700000000000000e+04
-8.580600000000000000e+04
-8.351700000000000000e+04
-7.726000000000000000e+04
-7.593900000000000000e+04
-8.175000000000000000e+04
-8.529500000000000000e+04
-8.302700000000000000e+04
-7.743600000000000000e+04
-7.665500000000000000e+04
-8.228700000000000000e+04
-8.598900000000000000e+04
-8.354900000000000000e+04
-7.745700000000000000e+04
-7.592100000000000000e+04
-8.158400000000000000e+04
-8.562700000000000000e+04
-8.350300000000000000e+04
-7.756500000000000000e+04
-7.598600000000000000e+04
-8.151500000000000000e+04
-8.556600000000000000e+04
-8.359600000000000000e+04
-7.747600000000000000e+04
-7.547400000000000000e+04
-8.124600000000000000e+04
-8.556500000000000000e+04
-8.375600000000000000e+04
-7.764000000000000000e+04
-7.544300000000000000e+04
-8.126400000000000000e+04
-8.566100000000000000e+04
-8.378600000000000000e+04
-7.778600000000000000e+04
-7.576600000000000000e+04
-8.107600000000000000e+04
-8.538700000000000000e+04
-8.362200000000000000e+04
-7.760400000000000000e+04
-7.553400000000000000e+04
-8.095700000000000000e+04
-8.529000000000000000e+04
-8.372100000000000000e+04
-7.778900000000000000e+04
-7.551900000000000000e+04
-8.098200000000000000e+04
-8.541600000000000000e+04
-8.379500000000000000e+04
-7.788700000000000000e+04
-7.531600000000000000e+04
-8.060400000000000000e+04
-8.532500000000000000e+04
-8.383900000000000000e+04
-7.821600000000000000e+04
-7.594700000000000000e+04
-8.112800000000000000e+04
-8.585300000000000000e+04
-8.462600000000000000e+04
-7.881600000000000000e+04
-7.588900000000000000e+04
-8.049700000000000000e+04
-8.471000000000000000e+04
-8.328400000000000000e+04
-7.736300000000000000e+04
-7.463600000000000000e+04
-7.982600000000000000e+04
-8.458000000000000000e+04
-8.369800000000000000e+04
-7.814000000000000000e+04
-7.539400000000000000e+04
-8.039500000000000000e+04
-8.540700000000000000e+04
-8.439100000000000000e+04
-7.827600000000000000e+04
-7.514900000000000000e+04
-7.989600000000000000e+04
-8.480500000000000000e+04
-8.424800000000000000e+04
-7.848500000000000000e+04
-7.523300000000000000e+04
-8.004000000000000000e+04
-8.490900000000000000e+04
-8.389900000000000000e+04
-7.828700000000000000e+04
-7.543200000000000000e+04
-7.990700000000000000e+04
-8.449900000000000000e+04
-8.421900000000000000e+04
-7.863200000000000000e+04
-7.507400000000000000e+04
-7.972100000000000000e+04
-8.475800000000000000e+04
-8.426200000000000000e+04
-7.884000000000000000e+04
-7.523800000000000000e+04
-7.950200000000000000e+04
-8.459200000000000000e+04
-8.398700000000000000e+04
-7.855600000000000000e+04
-7.497700000000000000e+04
-7.944600000000000000e+04
-8.449000000000000000e+04
-8.410100000000000000e+04
-7.893400000000000000e+04
-7.522900000000000000e+04
-7.924900000000000000e+04
-8.442700000000000000e+04
-8.420600000000000000e+04
-7.892400000000000000e+04
-7.510700000000000000e+04
-7.907600000000000000e+04
-8.444200000000000000e+04
-8.461600000000000000e+04
-7.887900000000000000e+04
-7.473700000000000000e+04
-7.905200000000000000e+04
-8.442500000000000000e+04
-8.432500000000000000e+04
-7.894300000000000000e+04
-7.498900000000000000e+04
-7.893400000000000000e+04
-8.442900000000000000e+04
-8.435600000000000000e+04
-7.890900000000000000e+04
-7.490500000000000000e+04
-7.874900000000000000e+04
-8.417900000000000000e+04
-8.425400000000000000e+04
-7.912700000000000000e+04
-7.482600000000000000e+04
-7.859700000000000000e+04
-8.414400000000000000e+04
-8.424600000000000000e+04
-7.901600000000000000e+04
-7.491100000000000000e+04
-7.836900000000000000e+04
-8.364600000000000000e+04
-8.412700000000000000e+04
-7.946700000000000000e+04
-7.504100000000000000e+04
-7.827200000000000000e+04
-8.384400000000000000e+04
-8.427100000000000000e+04
-7.937200000000000000e+04
-7.475200000000000000e+04
-7.805400000000000000e+04
-8.373100000000000000e+04
-8.434700000000000000e+04
-7.933700000000000000e+04
-7.465700000000000000e+04
-7.799500000000000000e+04
-8.367700000000000000e+04
-8.438000000000000000e+04
-7.940600000000000000e+04
-7.464100000000000000e+04
-7.778500000000000000e+04
-8.355100000000000000e+04
-8.464700000000000000e+04
-7.948500000000000000e+04
-7.423900000000000000e+04
-7.730500000000000000e+04
-8.318600000000000000e+04
-8.436100000000000000e+04
-7.962600000000000000e+04
-7.455800000000000000e+04
-7.741200000000000000e+04
-8.324600000000000000e+04
-8.437000000000000000e+04
-7.958400000000000000e+04
-7.444200000000000000e+04
-7.721500000000000000e+04
-8.315400000000000000e+04
-8.434300000000000000e+04
-7.975600000000000000e+04
-7.461600000000000000e+04
-7.718900000000000000e+04
-8.316600000000000000e+04
-8.445200000000000000e+04
-7.972900000000000000e+04
-7.453100000000000000e+04
-7.694200000000000000e+04
-8.271900000000000000e+04
-8.416500000000000000e+04
-7.973900000000000000e+04
-7.446100000000000000e+04
-7.689800000000000000e+04
-8.284400000000000000e+04
-8.429100000000000000e+04
-7.982100000000000000e+04
-7.450300000000000000e+04
-7.671600000000000000e+04
-8.272200000000000000e+04
-8.436700000000000000e+04
-7.998400000000000000e+04
-7.456400000000000000e+04
-7.658600000000000000e+04
-8.261900000000000000e+04
-8.445700000000000000e+04
-8.003800000000000000e+04
-7.452700000000000000e+04
-7.641500000000000000e+04
-8.236200000000000000e+04
-8.425500000000000000e+04
-7.986900000000000000e+04
-7.445600000000000000e+04
-7.646400000000000000e+04
-8.246700000000000000e+04
-8.429200000000000000e+04
-8.011200000000000000e+04
-7.457100000000000000e+04
-7.624800000000000000e+04
-8.198800000000000000e+04
-8.421600000000000000e+04
-8.085300000000000000e+04
-7.531100000000000000e+04
-7.699400000000000000e+04
-8.279300000000000000e+04
-8.475700000000000000e+04
-8.054100000000000000e+04
-7.431100000000000000e+04
-7.532100000000000000e+04
-8.135900000000000000e+04
-8.369400000000000000e+04
-8.012400000000000000e+04
-7.450600000000000000e+04
-7.581400000000000000e+04
-8.203600000000000000e+04
-8.433600000000000000e+04
-8.058400000000000000e+04
-7.482400000000000000e+04
-7.601900000000000000e+04
-8.207000000000000000e+04
-8.432200000000000000e+04
-8.056800000000000000e+04
-7.481600000000000000e+04
-7.565200000000000000e+04
-8.173800000000000000e+04
-8.437000000000000000e+04
-8.055200000000000000e+04
-7.482600000000000000e+04
-7.555900000000000000e+04
-8.162200000000000000e+04
-8.418600000000000000e+04
-8.061700000000000000e+04
-7.500500000000000000e+04
-7.564800000000000000e+04
-8.125900000000000000e+04
-8.404500000000000000e+04
-8.097000000000000000e+04
-7.505800000000000000e+04
-7.559600000000000000e+04
-8.163900000000000000e+04
-8.451300000000000000e+04
-8.106400000000000000e+04
-7.478600000000000000e+04
-7.520700000000000000e+04
-8.130600000000000000e+04
-8.421600000000000000e+04
-8.091300000000000000e+04
-7.505000000000000000e+04
-7.537700000000000000e+04
-8.122700000000000000e+04
-8.411700000000000000e+04
-8.103500000000000000e+04
-7.517700000000000000e+04
-7.523900000000000000e+04
-8.116300000000000000e+04
-8.429400000000000000e+04
-8.128200000000000000e+04
-7.540700000000000000e+04
-7.501900000000000000e+04
-8.090100000000000000e+04
-8.420400000000000000e+04
-8.121700000000000000e+04
-7.523600000000000000e+04
-7.495400000000000000e+04
-8.087200000000000000e+04
-8.418800000000000000e+04
-8.133400000000000000e+04
-7.534700000000000000e+04
-7.509300000000000000e+04
-8.099800000000000000e+04
-8.448100000000000000e+04
-8.164400000000000000e+04
-7.541900000000000000e+04
-7.482200000000000000e+04
-8.076100000000000000e+04
-8.430600000000000000e+04
-8.156600000000000000e+04
-7.556600000000000000e+04
-7.487400000000000000e+04
-8.045600000000000000e+04
-8.395300000000000000e+04
-8.146600000000000000e+04
-7.553400000000000000e+04
-7.471100000000000000e+04
-8.059500000000000000e+04
-8.420200000000000000e+04
-8.156800000000000000e+04
-7.567400000000000000e+04
-7.489700000000000000e+04
-8.019100000000000000e+04
-8.380200000000000000e+04
-8.146100000000000000e+04
-7.569700000000000000e+04
-7.474100000000000000e+04
-8.033200000000000000e+04
-8.408300000000000000e+04
-8.173700000000000000e+04
-7.566100000000000000e+04
-7.431700000000000000e+04
-8.007200000000000000e+04
-8.413200000000000000e+04
-8.184500000000000000e+04
-7.587200000000000000e+04
-7.462200000000000000e+04
-8.016200000000000000e+04
-8.400300000000000000e+04
-8.178800000000000000e+04
-7.584900000000000000e+04
-7.438700000000000000e+04
-7.992900000000000000e+04
-8.403300000000000000e+04
-8.201100000000000000e+04
-7.596400000000000000e+04
-7.434100000000000000e+04
-7.984100000000000000e+04
-8.395900000000000000e+04
-8.200200000000000000e+04
-7.599000000000000000e+04
-7.437500000000000000e+04
-7.979800000000000000e+04
-8.392300000000000000e+04
-8.219600000000000000e+04
-7.622800000000000000e+04
-7.408600000000000000e+04
-7.985600000000000000e+04
-8.419100000000000000e+04
-8.215600000000000000e+04
-7.619500000000000000e+04
-7.415800000000000000e+04
-7.961900000000000000e+04
-8.394000000000000000e+04
-8.204400000000000000e+04
-7.626200000000000000e+04
-7.415300000000000000e+04
-7.946800000000000000e+04
-8.401900000000000000e+04
-8.227600000000000000e+04
-7.619200000000000000e+04
-7.390400000000000000e+04
-7.912200000000000000e+04
-8.375600000000000000e+04
-8.238500000000000000e+04
-7.628200000000000000e+04
-7.374000000000000000e+04
-7.909600000000000000e+04
-8.368100000000000000e+04
-8.234600000000000000e+04
-7.653100000000000000e+04
-7.380900000000000000e+04
-7.887200000000000000e+04
-8.371200000000000000e+04
-8.237400000000000000e+04
-7.641500000000000000e+04
-7.387500000000000000e+04
-7.878900000000000000e+04
-8.362700000000000000e+04
-8.239600000000000000e+04
-7.675100000000000000e+04
-7.403200000000000000e+04
-7.913500000000000000e+04
-8.404600000000000000e+04
-8.325700000000000000e+04
-7.760800000000000000e+04
-7.429400000000000000e+04
-7.906400000000000000e+04
-8.368600000000000000e+04
-8.221400000000000000e+04
-7.629200000000000000e+04
-7.300000000000000000e+04
-7.794900000000000000e+04
-8.309400000000000000e+04
-8.246700000000000000e+04
-7.687700000000000000e+04
-7.381300000000000000e+04
-7.856400000000000000e+04
-8.350700000000000000e+04
-8.277400000000000000e+04
-7.702700000000000000e+04
-7.373100000000000000e+04
-7.842400000000000000e+04
-8.347400000000000000e+04
-8.274700000000000000e+04
-7.710700000000000000e+04
-7.365000000000000000e+04
-7.814300000000000000e+04
-8.332200000000000000e+04
-8.279100000000000000e+04
-7.708200000000000000e+04
-7.338600000000000000e+04
-7.802800000000000000e+04
-8.340400000000000000e+04
-8.300400000000000000e+04
-7.722500000000000000e+04
-7.342200000000000000e+04
-7.776700000000000000e+04
-8.302400000000000000e+04
-8.281400000000000000e+04
-7.744300000000000000e+04
-7.363900000000000000e+04
-7.787800000000000000e+04
-8.316700000000000000e+04
-8.309100000000000000e+04
-7.774700000000000000e+04
-7.370200000000000000e+04
-7.786900000000000000e+04
-8.323200000000000000e+04
-8.291700000000000000e+04
-7.750900000000000000e+04
-7.356500000000000000e+04
-7.755500000000000000e+04
-8.292900000000000000e+04
-8.292000000000000000e+04
-7.771900000000000000e+04
-7.353100000000000000e+04
-7.733200000000000000e+04
-8.278200000000000000e+04
-8.311100000000000000e+04
-7.804700000000000000e+04
-7.373900000000000000e+04
-7.743300000000000000e+04
-8.304400000000000000e+04
-8.337700000000000000e+04
-7.817700000000000000e+04
-7.374200000000000000e+04
-7.745900000000000000e+04
-8.290400000000000000e+04
-8.335700000000000000e+04
-7.823200000000000000e+04
-7.377400000000000000e+04
-7.743700000000000000e+04
-8.302700000000000000e+04
-8.368100000000000000e+04
-7.845700000000000000e+04
-7.368200000000000000e+04
-7.720900000000000000e+04
-8.274800000000000000e+04
-8.333700000000000000e+04
-7.841700000000000000e+04
-7.379400000000000000e+04
-7.713400000000000000e+04
-8.275500000000000000e+04
-8.352400000000000000e+04
-7.845700000000000000e+04
-7.367400000000000000e+04
-7.700700000000000000e+04
-8.256700000000000000e+04
-8.334400000000000000e+04
-7.844700000000000000e+04
-7.368700000000000000e+04
-7.687600000000000000e+04
-8.256900000000000000e+04
-8.362300000000000000e+04
-7.865700000000000000e+04
-7.356800000000000000e+04
-7.669000000000000000e+04
-8.254600000000000000e+04
-8.343700000000000000e+04
-7.871600000000000000e+04
-7.373800000000000000e+04
-7.680300000000000000e+04
-8.261700000000000000e+04
-8.374400000000000000e+04
-7.905200000000000000e+04
-7.410300000000000000e+04
-7.680100000000000000e+04
-8.228600000000000000e+04
-8.345000000000000000e+04
-7.890100000000000000e+04
-7.390700000000000000e+04
-7.656700000000000000e+04
-8.228000000000000000e+04
-8.361300000000000000e+04
-7.913900000000000000e+04
-7.399700000000000000e+04
-7.635500000000000000e+04
-8.210400000000000000e+04
-8.358400000000000000e+04
-7.918100000000000000e+04
-7.401200000000000000e+04
-7.648200000000000000e+04
-8.220500000000000000e+04
-8.354200000000000000e+04
-7.928400000000000000e+04
-7.395100000000000000e+04
-7.626900000000000000e+04
-8.221100000000000000e+04
-8.374400000000000000e+04
-7.944300000000000000e+04
-7.408800000000000000e+04
-7.622400000000000000e+04
-8.197700000000000000e+04
-8.360300000000000000e+04
-7.950800000000000000e+04
-7.399300000000000000e+04
-7.603000000000000000e+04
-8.204200000000000000e+04
-8.382600000000000000e+04
-7.972200000000000000e+04
-7.421000000000000000e+04
-7.573500000000000000e+04
-8.166200000000000000e+04
-8.372100000000000000e+04
-7.967900000000000000e+04
-7.402900000000000000e+04
-7.582200000000000000e+04
-8.187700000000000000e+04
-8.378200000000000000e+04
-7.987100000000000000e+04
-7.418600000000000000e+04
-7.569400000000000000e+04
-8.168900000000000000e+04
-8.381700000000000000e+04
-7.988900000000000000e+04
-7.413400000000000000e+04
-7.556200000000000000e+04
-8.169900000000000000e+04
-8.412900000000000000e+04
-8.049100000000000000e+04
-7.478000000000000000e+04
-7.601600000000000000e+04
-8.206200000000000000e+04
-8.439900000000000000e+04
-8.063600000000000000e+04
-7.473900000000000000e+04
-7.551900000000000000e+04
-8.100400000000000000e+04
-8.319500000000000000e+04
-7.966200000000000000e+04
-7.386300000000000000e+04
-7.484400000000000000e+04
-8.103900000000000000e+04
-8.371600000000000000e+04
-8.021400000000000000e+04
-7.434400000000000000e+04
-7.526700000000000000e+04
-8.131200000000000000e+04
-8.386700000000000000e+04
-8.030400000000000000e+04
-7.447200000000000000e+04
-7.503800000000000000e+04
-8.119700000000000000e+04
-8.389900000000000000e+04
-8.044100000000000000e+04
-7.459500000000000000e+04
-7.503200000000000000e+04
-8.113400000000000000e+04
-8.398300000000000000e+04
-8.066600000000000000e+04
-7.463700000000000000e+04
-7.495400000000000000e+04
-8.100500000000000000e+04
-8.392100000000000000e+04
-8.066600000000000000e+04
-7.471900000000000000e+04
-7.491900000000000000e+04
-8.077100000000000000e+04
-8.397700000000000000e+04
-8.102800000000000000e+04
-7.501400000000000000e+04
-7.495200000000000000e+04
-8.085200000000000000e+04
-8.413900000000000000e+04
-8.115600000000000000e+04
-7.508200000000000000e+04
-7.499000000000000000e+04
-8.089600000000000000e+04
-8.410100000000000000e+04
-8.110400000000000000e+04
-7.515600000000000000e+04
-7.483400000000000000e+04
-8.066900000000000000e+04
-8.413700000000000000e+04
-8.125200000000000000e+04
-7.526400000000000000e+04
-7.478900000000000000e+04
-8.063300000000000000e+04
-8.398800000000000000e+04
-8.116700000000000000e+04
-7.538400000000000000e+04
-7.471100000000000000e+04
-8.051200000000000000e+04
-8.416700000000000000e+04
-8.156400000000000000e+04
-7.532200000000000000e+04
-7.447900000000000000e+04
-8.043200000000000000e+04
-8.399700000000000000e+04
-8.154100000000000000e+04
-7.552700000000000000e+04
-7.454600000000000000e+04
-8.030000000000000000e+04
-8.406800000000000000e+04
-8.164400000000000000e+04
-7.542800000000000000e+04
-7.444500000000000000e+04
-8.023700000000000000e+04
-8.390500000000000000e+04
-8.170200000000000000e+04
-7.588500000000000000e+04
-7.455100000000000000e+04
-8.001200000000000000e+04
-8.382500000000000000e+04
-8.155300000000000000e+04
-7.556400000000000000e+04
-7.445500000000000000e+04
-8.012800000000000000e+04
-8.372700000000000000e+04
-8.142000000000000000e+04
-7.577900000000000000e+04
-7.433100000000000000e+04
-7.983000000000000000e+04
-8.385700000000000000e+04
-8.179700000000000000e+04
-7.589900000000000000e+04
-7.447600000000000000e+04
-7.963400000000000000e+04
-8.355800000000000000e+04
-8.179700000000000000e+04
-7.603800000000000000e+04
-7.412900000000000000e+04
-7.953700000000000000e+04
-8.374900000000000000e+04
-8.183900000000000000e+04
-7.585600000000000000e+04
-7.409100000000000000e+04
-7.964600000000000000e+04
-8.399100000000000000e+04
-8.198800000000000000e+04
-7.602100000000000000e+04
-7.413100000000000000e+04
-7.943100000000000000e+04
-8.378600000000000000e+04
-8.209300000000000000e+04
-7.618600000000000000e+04
-7.411300000000000000e+04
-7.938200000000000000e+04
-8.366400000000000000e+04
-8.194400000000000000e+04
-7.625700000000000000e+04
-7.399700000000000000e+04
-7.914600000000000000e+04
-8.344000000000000000e+04
-8.197400000000000000e+04
-7.621800000000000000e+04
-7.392700000000000000e+04
-7.926700000000000000e+04
-8.360700000000000000e+04
-8.229700000000000000e+04
-7.655300000000000000e+04
-7.386200000000000000e+04
-7.907700000000000000e+04
-8.335400000000000000e+04
-8.208600000000000000e+04
-7.655300000000000000e+04
-7.402000000000000000e+04
-7.889100000000000000e+04
-8.347900000000000000e+04
-8.266100000000000000e+04
-7.654500000000000000e+04
-7.353800000000000000e+04
-7.864100000000000000e+04
-8.360000000000000000e+04
-8.262700000000000000e+04
-7.692000000000000000e+04
-7.339100000000000000e+04
-7.849000000000000000e+04
-8.385200000000000000e+04
-8.268400000000000000e+04
-7.657200000000000000e+04
-7.323300000000000000e+04
-7.829800000000000000e+04
-8.338400000000000000e+04
-8.267200000000000000e+04
-7.691600000000000000e+04
-7.368500000000000000e+04
-7.845800000000000000e+04
-8.346800000000000000e+04
-8.294500000000000000e+04
-7.761400000000000000e+04
-7.441400000000000000e+04
-7.865600000000000000e+04
-8.329400000000000000e+04
-8.221400000000000000e+04
-7.601600000000000000e+04
-7.234100000000000000e+04
-7.713400000000000000e+04
-8.234400000000000000e+04
-8.233400000000000000e+04
-7.719700000000000000e+04
-7.333700000000000000e+04
-7.784800000000000000e+04
-8.302900000000000000e+04
-8.229400000000000000e+04
-7.686100000000000000e+04
-7.332900000000000000e+04
-7.781400000000000000e+04
-8.314400000000000000e+04
-8.284900000000000000e+04
-7.703700000000000000e+04
-7.300500000000000000e+04
-7.731500000000000000e+04
-8.279300000000000000e+04
-8.279300000000000000e+04
-7.708000000000000000e+04
-7.272800000000000000e+04
-7.711400000000000000e+04
-8.250900000000000000e+04
-8.260400000000000000e+04
-7.736000000000000000e+04
-7.281600000000000000e+04
-7.699400000000000000e+04
-8.257800000000000000e+04
-8.256500000000000000e+04
-7.729900000000000000e+04
-7.329100000000000000e+04
-7.687700000000000000e+04
-8.219200000000000000e+04
-8.232500000000000000e+04
-7.724100000000000000e+04
-7.294900000000000000e+04
-7.700700000000000000e+04
-8.257900000000000000e+04
-8.240500000000000000e+04
-7.721600000000000000e+04
-7.310700000000000000e+04
-7.689900000000000000e+04
-8.222100000000000000e+04
-8.248900000000000000e+04
-7.748400000000000000e+04
-7.305800000000000000e+04
-7.662900000000000000e+04
-8.223200000000000000e+04
-8.284700000000000000e+04
-7.772400000000000000e+04
-7.283700000000000000e+04
-7.627500000000000000e+04
-8.217000000000000000e+04
-8.300600000000000000e+04
-7.802400000000000000e+04
-7.319500000000000000e+04
-7.657900000000000000e+04
-8.227300000000000000e+04
-8.286900000000000000e+04
-7.806000000000000000e+04
-7.318200000000000000e+04
-7.642600000000000000e+04
-8.221700000000000000e+04
-8.294900000000000000e+04
-7.808600000000000000e+04
-7.296200000000000000e+04
-7.619200000000000000e+04
-8.208500000000000000e+04
-8.280700000000000000e+04
-7.801200000000000000e+04
-7.314400000000000000e+04
-7.628300000000000000e+04
-8.193400000000000000e+04
-8.286000000000000000e+04
-7.810600000000000000e+04
-7.319000000000000000e+04
-7.628800000000000000e+04
-8.178100000000000000e+04
-8.272100000000000000e+04
-7.828200000000000000e+04
-7.314600000000000000e+04
-7.584200000000000000e+04
-8.180400000000000000e+04
-8.313300000000000000e+04
-7.839200000000000000e+04
-7.324000000000000000e+04
-7.592700000000000000e+04
-8.171700000000000000e+04
-8.290500000000000000e+04
-7.836700000000000000e+04
-7.317400000000000000e+04
-7.557600000000000000e+04
-8.147200000000000000e+04
-8.306300000000000000e+04
-7.866100000000000000e+04
-7.323000000000000000e+04
-7.546300000000000000e+04
-8.124900000000000000e+04
-8.280900000000000000e+04
-7.855600000000000000e+04
-7.328700000000000000e+04
-7.557200000000000000e+04
-8.143900000000000000e+04
-8.298100000000000000e+04
-7.872700000000000000e+04
-7.319900000000000000e+04
-7.508400000000000000e+04
-8.126300000000000000e+04
-8.328700000000000000e+04
-7.886300000000000000e+04
-7.322000000000000000e+04
-7.518400000000000000e+04
-8.119600000000000000e+04
-8.305300000000000000e+04
-7.900300000000000000e+04
-7.339900000000000000e+04
-7.504100000000000000e+04
-8.101800000000000000e+04
-8.308900000000000000e+04
-7.912700000000000000e+04
-7.342700000000000000e+04
-7.519200000000000000e+04
-8.128900000000000000e+04
-8.310100000000000000e+04
-7.909700000000000000e+04
-7.365600000000000000e+04
-7.496100000000000000e+04
-8.066900000000000000e+04
-8.280600000000000000e+04
-7.892800000000000000e+04
-7.341200000000000000e+04
-7.461400000000000000e+04
-8.045200000000000000e+04
-8.275100000000000000e+04
-7.913100000000000000e+04
-7.354900000000000000e+04
-7.475600000000000000e+04
-8.074300000000000000e+04
-8.312400000000000000e+04
-7.926000000000000000e+04
-7.356400000000000000e+04
-7.477500000000000000e+04
-8.060600000000000000e+04
-8.283600000000000000e+04
-7.938600000000000000e+04
-7.380700000000000000e+04
-7.458100000000000000e+04
-8.025200000000000000e+04
-8.290400000000000000e+04
-7.972600000000000000e+04
-7.411900000000000000e+04
-7.509600000000000000e+04
-8.119200000000000000e+04
-8.369900000000000000e+04
-7.981700000000000000e+04
-7.365000000000000000e+04
-7.368600000000000000e+04
-7.951800000000000000e+04
-8.239800000000000000e+04
-7.927000000000000000e+04
-7.357300000000000000e+04
-7.408600000000000000e+04
-8.007400000000000000e+04
-8.311000000000000000e+04
-7.980500000000000000e+04
-7.389900000000000000e+04
-7.425700000000000000e+04
-8.025000000000000000e+04
-8.317800000000000000e+04
-8.002900000000000000e+04
-7.416100000000000000e+04
-7.422300000000000000e+04
-8.010000000000000000e+04
-8.311100000000000000e+04
-8.008600000000000000e+04
-7.400100000000000000e+04
-7.396600000000000000e+04
-8.007500000000000000e+04
-8.306100000000000000e+04
-7.986700000000000000e+04
-7.376100000000000000e+04
-7.378900000000000000e+04
-7.998600000000000000e+04
-8.286100000000000000e+04
-7.968600000000000000e+04
-7.346100000000000000e+04
-7.280900000000000000e+04
-7.961300000000000000e+04
-8.339500000000000000e+04
-8.022100000000000000e+04
-7.439000000000000000e+04
-7.424800000000000000e+04
-7.990500000000000000e+04
-8.329400000000000000e+04
-8.049700000000000000e+04
-7.431800000000000000e+04
-7.382900000000000000e+04
-7.963100000000000000e+04
-8.306200000000000000e+04
-8.049100000000000000e+04
-7.454300000000000000e+04
-7.382700000000000000e+04
-7.952200000000000000e+04
-8.277700000000000000e+04
-8.003200000000000000e+04
-7.409000000000000000e+04
-7.145700000000000000e+04
-7.359600000000000000e+04
-7.568100000000000000e+04
-7.500400000000000000e+04
-6.828800000000000000e+04
-6.738500000000000000e+04
-7.533300000000000000e+04
-7.982400000000000000e+04
-7.463300000000000000e+04
-6.674000000000000000e+04
-6.856800000000000000e+04
-8.118900000000000000e+04
-8.741400000000000000e+04
-8.289700000000000000e+04
-7.379900000000000000e+04
-7.021200000000000000e+04
-7.484900000000000000e+04
-8.172600000000000000e+04
-7.943400000000000000e+04
-7.102900000000000000e+04
-6.758100000000000000e+04
-6.482600000000000000e+04
-6.582900000000000000e+04
-7.225900000000000000e+04
-7.352200000000000000e+04
-7.314900000000000000e+04
-7.685000000000000000e+04
-7.947400000000000000e+04
-7.319400000000000000e+04
-6.042400000000000000e+04
-5.609900000000000000e+04
-6.233200000000000000e+04
-7.305500000000000000e+04
-7.605200000000000000e+04
-6.804300000000000000e+04
-6.210700000000000000e+04
-5.467600000000000000e+04
-5.257500000000000000e+04
-6.073900000000000000e+04
-6.620900000000000000e+04
-6.700700000000000000e+04
-6.200800000000000000e+04
-5.214700000000000000e+04
-5.601400000000000000e+04
-5.858100000000000000e+04
-4.911600000000000000e+04
-5.305700000000000000e+04
-6.137900000000000000e+04
-5.749700000000000000e+04
-5.505400000000000000e+04
-5.360200000000000000e+04
-5.323500000000000000e+04
-5.527600000000000000e+04
-5.668400000000000000e+04
-5.187600000000000000e+04
-5.019100000000000000e+04
-5.951600000000000000e+04
-6.170900000000000000e+04
-5.896800000000000000e+04
-5.275900000000000000e+04
-3.747900000000000000e+04
-4.280200000000000000e+04
-5.663000000000000000e+04
-6.939700000000000000e+04
-5.970600000000000000e+04
-4.656100000000000000e+04
-5.300800000000000000e+04
-6.231600000000000000e+04
-5.644900000000000000e+04
-5.629900000000000000e+04
-4.863400000000000000e+04
-4.840300000000000000e+04
-5.725600000000000000e+04
-4.767600000000000000e+04
-4.548600000000000000e+04
-5.857600000000000000e+04
-6.171200000000000000e+04
-6.153500000000000000e+04
-5.306300000000000000e+04
-4.246200000000000000e+04
-4.034900000000000000e+04
-5.917800000000000000e+04
-6.899400000000000000e+04
-5.863200000000000000e+04
-4.871100000000000000e+04
-4.926900000000000000e+04
-5.087900000000000000e+04
-5.658600000000000000e+04
-5.954900000000000000e+04
-5.567100000000000000e+04
-5.620100000000000000e+04
-5.752900000000000000e+04
-5.694800000000000000e+04
-4.789800000000000000e+04
-4.425100000000000000e+04
-4.952900000000000000e+04
-5.556600000000000000e+04
-6.204100000000000000e+04
-5.787600000000000000e+04
-5.172400000000000000e+04
-5.412700000000000000e+04
-6.670800000000000000e+04
-6.269900000000000000e+04
-5.056100000000000000e+04
-5.004900000000000000e+04
-5.408400000000000000e+04
-6.279700000000000000e+04
-5.307900000000000000e+04
-5.364300000000000000e+04
-6.730400000000000000e+04
-5.732400000000000000e+04
-5.161800000000000000e+04
-4.877900000000000000e+04
-5.795800000000000000e+04
-5.829300000000000000e+04
-5.782400000000000000e+04
-5.009400000000000000e+04
-6.108700000000000000e+04
-6.019200000000000000e+04
-5.592600000000000000e+04
-4.869000000000000000e+04
-5.798800000000000000e+04
-6.244600000000000000e+04
-5.651000000000000000e+04
-5.263100000000000000e+04
-4.987600000000000000e+04
-4.818800000000000000e+04
-6.133200000000000000e+04
-6.361900000000000000e+04
-4.757100000000000000e+04
-5.645100000000000000e+04
-6.364200000000000000e+04
-5.779700000000000000e+04
-5.213100000000000000e+04
-5.959700000000000000e+04
-6.000900000000000000e+04
-5.458700000000000000e+04
-4.952200000000000000e+04
-5.335200000000000000e+04
-6.590100000000000000e+04
-6.114700000000000000e+04
-5.323200000000000000e+04
-5.332300000000000000e+04
-5.529000000000000000e+04
-6.075900000000000000e+04
-5.043800000000000000e+04
-5.541200000000000000e+04
-5.875200000000000000e+04
-4.899500000000000000e+04
-5.016100000000000000e+04
-5.446900000000000000e+04
-5.594400000000000000e+04
-6.048100000000000000e+04
-6.359500000000000000e+04
-5.994200000000000000e+04
-5.043100000000000000e+04
-4.849400000000000000e+04
-5.077100000000000000e+04
-6.233400000000000000e+04
-5.654200000000000000e+04
-4.435000000000000000e+04
-5.308400000000000000e+04
-5.802600000000000000e+04
-6.590200000000000000e+04
-5.615200000000000000e+04
-4.853400000000000000e+04
-6.115600000000000000e+04
-6.388700000000000000e+04
-5.662100000000000000e+04
-4.887900000000000000e+04
-5.369600000000000000e+04
-5.689500000000000000e+04
-4.828300000000000000e+04
-5.476200000000000000e+04
-5.977900000000000000e+04
-5.536100000000000000e+04
-5.436100000000000000e+04
-5.372500000000000000e+04
-6.154100000000000000e+04
-6.308700000000000000e+04
-5.432900000000000000e+04
-4.975600000000000000e+04
-5.645600000000000000e+04
-6.039900000000000000e+04
-5.212100000000000000e+04
-4.731600000000000000e+04
-5.800900000000000000e+04
-5.846000000000000000e+04
-4.465900000000000000e+04
-4.377000000000000000e+04
-5.715800000000000000e+04
-5.602900000000000000e+04
-5.985100000000000000e+04
-5.275600000000000000e+04
-5.408100000000000000e+04
-5.937000000000000000e+04
-5.494000000000000000e+04
-5.488400000000000000e+04
-5.947600000000000000e+04
-4.575700000000000000e+04
-4.017000000000000000e+04
-5.626900000000000000e+04
-6.347500000000000000e+04
-6.612800000000000000e+04
-5.999100000000000000e+04
-4.297400000000000000e+04
-4.337400000000000000e+04
-5.634700000000000000e+04
-6.972300000000000000e+04
-6.458200000000000000e+04
-5.247700000000000000e+04
-5.155400000000000000e+04
-4.551700000000000000e+04
-4.135900000000000000e+04
-5.464500000000000000e+04
-6.387600000000000000e+04
-5.716600000000000000e+04
-5.539900000000000000e+04
-5.369400000000000000e+04
-4.908200000000000000e+04
-4.345300000000000000e+04
-5.569600000000000000e+04
-5.179000000000000000e+04
-6.197600000000000000e+04
-5.517300000000000000e+04
-5.646000000000000000e+04
-5.461200000000000000e+04
-5.582700000000000000e+04
-5.989900000000000000e+04
-5.706600000000000000e+04
-5.878500000000000000e+04
-5.691000000000000000e+04
-5.499700000000000000e+04
-4.829000000000000000e+04
-4.441400000000000000e+04
-4.286400000000000000e+04
-5.102900000000000000e+04
-5.902200000000000000e+04
-7.018200000000000000e+04
-6.002900000000000000e+04
-4.926100000000000000e+04
-4.056100000000000000e+04
-4.963700000000000000e+04
-6.543600000000000000e+04
-6.058400000000000000e+04
-5.393600000000000000e+04
-4.250700000000000000e+04
-5.959200000000000000e+04
-5.868100000000000000e+04
-4.741300000000000000e+04
-5.259200000000000000e+04
-5.274900000000000000e+04
-5.569800000000000000e+04
-6.285200000000000000e+04
-5.420800000000000000e+04
-4.011900000000000000e+04
-4.900100000000000000e+04
-5.978900000000000000e+04
-6.464900000000000000e+04
-5.518000000000000000e+04
-3.791700000000000000e+04
-5.610000000000000000e+04
-6.280700000000000000e+04
-5.246400000000000000e+04
-5.420400000000000000e+04
-5.009500000000000000e+04
-5.191300000000000000e+04
-5.859400000000000000e+04
-5.477300000000000000e+04
-4.777400000000000000e+04
-4.718400000000000000e+04
-4.728100000000000000e+04
-6.055900000000000000e+04
-6.296700000000000000e+04
-6.797200000000000000e+04
-5.669200000000000000e+04
-4.274100000000000000e+04
-4.418600000000000000e+04
-6.451200000000000000e+04
-5.485900000000000000e+04
-4.290900000000000000e+04
-3.899100000000000000e+04
-5.589600000000000000e+04
-6.746600000000000000e+04
-6.270600000000000000e+04
-5.219400000000000000e+04
-5.162700000000000000e+04
-4.428600000000000000e+04
-5.146400000000000000e+04
-6.090500000000000000e+04
-6.601700000000000000e+04
-5.720100000000000000e+04
-4.883600000000000000e+04
-4.737600000000000000e+04
-4.751200000000000000e+04
-5.501900000000000000e+04
-5.850600000000000000e+04
-5.272900000000000000e+04
-4.790900000000000000e+04
-5.331800000000000000e+04
-5.963900000000000000e+04
-5.429200000000000000e+04
-5.217100000000000000e+04
-6.034300000000000000e+04
-5.805900000000000000e+04
-4.902100000000000000e+04
-4.909200000000000000e+04
-5.252600000000000000e+04
-5.891500000000000000e+04
-6.413900000000000000e+04
-4.983100000000000000e+04
-4.299500000000000000e+04
-5.004300000000000000e+04
-6.423000000000000000e+04
-6.463500000000000000e+04
-4.772600000000000000e+04
-4.033600000000000000e+04
-4.876200000000000000e+04
-5.854200000000000000e+04
-5.524900000000000000e+04
-4.911900000000000000e+04
-5.489900000000000000e+04
-6.309700000000000000e+04
-6.296800000000000000e+04
-5.865000000000000000e+04
-5.004700000000000000e+04
-4.312700000000000000e+04
-5.077200000000000000e+04
-6.399400000000000000e+04
-6.478600000000000000e+04
-4.845600000000000000e+04
-3.521900000000000000e+04
-4.175500000000000000e+04
-6.874600000000000000e+04
-7.073400000000000000e+04
-4.959500000000000000e+04
-4.417200000000000000e+04
-5.761400000000000000e+04
-6.552900000000000000e+04
-5.872100000000000000e+04
-4.213100000000000000e+04
-5.155900000000000000e+04
-6.197700000000000000e+04
-5.435400000000000000e+04
-5.071600000000000000e+04
-4.412600000000000000e+04
-5.312200000000000000e+04
-6.414300000000000000e+04
-4.875100000000000000e+04
-4.200900000000000000e+04
-6.328600000000000000e+04
-6.049600000000000000e+04
-6.331900000000000000e+04
-6.029200000000000000e+04
-5.840600000000000000e+04
-5.149600000000000000e+04
-4.274700000000000000e+04
-4.678900000000000000e+04
-6.425600000000000000e+04
-7.036100000000000000e+04
-5.456100000000000000e+04
-4.235400000000000000e+04
-4.682700000000000000e+04
-5.594000000000000000e+04
-5.798900000000000000e+04
-5.305100000000000000e+04
-5.253300000000000000e+04
-5.065400000000000000e+04
-5.043400000000000000e+04
-5.337200000000000000e+04
-6.607000000000000000e+04
-5.740200000000000000e+04
-6.181600000000000000e+04
-5.379500000000000000e+04
-4.715500000000000000e+04
-5.341900000000000000e+04
-5.380000000000000000e+04
-5.780200000000000000e+04
-6.201700000000000000e+04
-5.939500000000000000e+04
-5.141600000000000000e+04
-3.958200000000000000e+04
-4.931200000000000000e+04
-6.669600000000000000e+04
-5.507900000000000000e+04
-4.918600000000000000e+04
-5.291800000000000000e+04
-5.336700000000000000e+04
-6.252500000000000000e+04
-5.613100000000000000e+04
-4.588600000000000000e+04
-5.245100000000000000e+04
-5.731300000000000000e+04
-5.721300000000000000e+04
-5.272900000000000000e+04
-5.854400000000000000e+04
-5.708000000000000000e+04
-4.849300000000000000e+04
-5.282000000000000000e+04
-6.004700000000000000e+04
-5.217200000000000000e+04
-4.957100000000000000e+04
-4.751000000000000000e+04
-6.262900000000000000e+04
-6.657100000000000000e+04
-5.892100000000000000e+04
-5.095900000000000000e+04
-3.761900000000000000e+04
-5.335600000000000000e+04
-6.193600000000000000e+04
-4.770700000000000000e+04
-4.813700000000000000e+04
-6.298500000000000000e+04
-5.565100000000000000e+04
-5.416500000000000000e+04
-5.432900000000000000e+04
-5.128200000000000000e+04
-5.208500000000000000e+04
-6.037300000000000000e+04
-5.998000000000000000e+04
-4.652900000000000000e+04
-4.992400000000000000e+04
-5.824000000000000000e+04
-6.145200000000000000e+04
-6.183700000000000000e+04
-4.908200000000000000e+04
-3.480000000000000000e+04
-3.964800000000000000e+04
-6.998200000000000000e+04
-7.207400000000000000e+04
-4.892200000000000000e+04
-4.332600000000000000e+04
-4.956700000000000000e+04
-4.887900000000000000e+04
-5.352700000000000000e+04
-6.332400000000000000e+04
-6.273700000000000000e+04
-5.143100000000000000e+04
-4.392700000000000000e+04
-6.478100000000000000e+04
-6.134300000000000000e+04
-4.697000000000000000e+04
-4.871900000000000000e+04
-5.504200000000000000e+04
-6.154900000000000000e+04
-5.533500000000000000e+04
-4.650600000000000000e+04
-5.178700000000000000e+04
-5.951500000000000000e+04
-5.465700000000000000e+04
-4.655800000000000000e+04
-4.830000000000000000e+04
-4.812100000000000000e+04
-6.272200000000000000e+04
-6.276400000000000000e+04
-5.484600000000000000e+04
-4.359300000000000000e+04
-4.705100000000000000e+04
-5.997700000000000000e+04
-6.965600000000000000e+04
-5.451100000000000000e+04
-4.899600000000000000e+04
-4.998000000000000000e+04
-5.363100000000000000e+04
-6.216200000000000000e+04
-4.625400000000000000e+04
-3.905600000000000000e+04
-5.852700000000000000e+04
-5.961900000000000000e+04
-6.216700000000000000e+04
-4.822400000000000000e+04
-3.686200000000000000e+04
-5.475600000000000000e+04
-6.863600000000000000e+04
-6.534700000000000000e+04
-5.815800000000000000e+04
-4.680000000000000000e+04
-3.784700000000000000e+04
-4.909400000000000000e+04
-6.089200000000000000e+04
-5.086000000000000000e+04
-4.739600000000000000e+04
-5.826600000000000000e+04
-6.813600000000000000e+04
-5.775600000000000000e+04
-3.909700000000000000e+04
-5.735100000000000000e+04
-5.121200000000000000e+04
-5.518700000000000000e+04
-6.122400000000000000e+04
-4.857900000000000000e+04
-4.135300000000000000e+04
-4.877400000000000000e+04
-6.117800000000000000e+04
-6.698700000000000000e+04
-5.315700000000000000e+04
-4.120700000000000000e+04
-5.200400000000000000e+04
-6.522400000000000000e+04
-5.754900000000000000e+04
-5.179300000000000000e+04
-4.124700000000000000e+04
-4.548900000000000000e+04
-5.410300000000000000e+04
-5.552400000000000000e+04
-5.457400000000000000e+04
-5.409100000000000000e+04
-5.138900000000000000e+04
-5.826300000000000000e+04
-6.465900000000000000e+04
-5.458100000000000000e+04
-5.036900000000000000e+04
-5.484700000000000000e+04
-5.473700000000000000e+04
-5.301500000000000000e+04
-4.258100000000000000e+04
-5.193700000000000000e+04
-5.528800000000000000e+04
-5.613000000000000000e+04
-5.019600000000000000e+04
-5.154100000000000000e+04
-5.436600000000000000e+04
-5.415100000000000000e+04
-6.310500000000000000e+04
-6.252700000000000000e+04
-5.036400000000000000e+04
-3.671100000000000000e+04
-4.392900000000000000e+04
-5.481800000000000000e+04
-5.699500000000000000e+04
-6.217200000000000000e+04
-5.515500000000000000e+04
-4.716500000000000000e+04
-4.540100000000000000e+04
-5.816200000000000000e+04
-6.586400000000000000e+04
-5.989800000000000000e+04
-5.137500000000000000e+04
-4.462200000000000000e+04
-4.813600000000000000e+04
-4.621600000000000000e+04
-5.462300000000000000e+04
-5.746800000000000000e+04
-5.577600000000000000e+04
-4.677600000000000000e+04
-6.599500000000000000e+04
-6.431500000000000000e+04
-5.136100000000000000e+04
-5.330100000000000000e+04
-5.490700000000000000e+04
-4.870700000000000000e+04
-3.758300000000000000e+04
-4.652400000000000000e+04
-6.333500000000000000e+04
-6.799800000000000000e+04
-5.645800000000000000e+04
-4.333600000000000000e+04
-4.581300000000000000e+04
-5.641900000000000000e+04
-5.722500000000000000e+04
-5.441200000000000000e+04
-4.585400000000000000e+04
-4.752900000000000000e+04
-6.556000000000000000e+04
-6.309100000000000000e+04
-5.341800000000000000e+04
-5.736400000000000000e+04
-5.424000000000000000e+04
-5.433600000000000000e+04
-5.796000000000000000e+04
-5.679100000000000000e+04
-4.521900000000000000e+04
-4.559200000000000000e+04
-5.959400000000000000e+04
-5.962100000000000000e+04
-4.579400000000000000e+04
-4.034700000000000000e+04
-6.337700000000000000e+04
-6.217400000000000000e+04
-4.598700000000000000e+04
-5.119900000000000000e+04
-5.777100000000000000e+04
-6.000200000000000000e+04
-4.925400000000000000e+04
-5.331600000000000000e+04
-6.417900000000000000e+04
-5.929400000000000000e+04
-5.064900000000000000e+04
-5.138200000000000000e+04
-4.666500000000000000e+04
-5.362700000000000000e+04
-5.211700000000000000e+04
-5.302900000000000000e+04
-5.662400000000000000e+04
-5.599200000000000000e+04
-6.027900000000000000e+04
-5.382500000000000000e+04
-5.507400000000000000e+04
-5.113500000000000000e+04
-5.477700000000000000e+04
-6.098700000000000000e+04
-4.955200000000000000e+04
-4.872600000000000000e+04
-5.069100000000000000e+04
-5.981900000000000000e+04
-5.336100000000000000e+04
-4.646200000000000000e+04
-6.118800000000000000e+04
-6.603400000000000000e+04
-5.586400000000000000e+04
-4.488700000000000000e+04
-4.917700000000000000e+04
-5.918400000000000000e+04
-6.008400000000000000e+04
-5.843400000000000000e+04
-4.675300000000000000e+04
-4.182700000000000000e+04
-6.368800000000000000e+04
-5.712600000000000000e+04
-5.842400000000000000e+04
-7.015700000000000000e+04
-5.735300000000000000e+04
-4.849200000000000000e+04
-4.951600000000000000e+04
-5.904500000000000000e+04
-5.652800000000000000e+04
-3.890700000000000000e+04
-5.720100000000000000e+04
-6.590800000000000000e+04
-5.312400000000000000e+04
-5.410400000000000000e+04
-5.987600000000000000e+04
-5.358200000000000000e+04
-4.606600000000000000e+04
-4.732700000000000000e+04
-5.689200000000000000e+04
-5.875300000000000000e+04
-5.451800000000000000e+04
-4.700100000000000000e+04
-5.435900000000000000e+04
-7.634600000000000000e+04
-6.078800000000000000e+04
-4.075200000000000000e+04
-4.421100000000000000e+04
-6.773600000000000000e+04
-5.558100000000000000e+04
-4.865700000000000000e+04
-5.585600000000000000e+04
-6.099500000000000000e+04
-5.685100000000000000e+04
-5.312400000000000000e+04
-5.236400000000000000e+04
-5.867300000000000000e+04
-6.225700000000000000e+04
-5.256400000000000000e+04
-5.863400000000000000e+04
-4.965600000000000000e+04
-4.329900000000000000e+04
-5.880900000000000000e+04
-6.149400000000000000e+04
-4.307000000000000000e+04
-5.154800000000000000e+04
-5.570400000000000000e+04
-5.622200000000000000e+04
-6.938500000000000000e+04
-6.162200000000000000e+04
-4.898200000000000000e+04
-4.890600000000000000e+04
-6.371200000000000000e+04
-6.143300000000000000e+04
-5.313800000000000000e+04
-4.931900000000000000e+04
-5.616600000000000000e+04
-6.249100000000000000e+04
-6.272400000000000000e+04
-5.703600000000000000e+04
-4.023900000000000000e+04
-5.228700000000000000e+04
-6.475100000000000000e+04
-5.861700000000000000e+04
-5.201200000000000000e+04
-5.824700000000000000e+04
-5.388400000000000000e+04
-4.066500000000000000e+04
-5.354700000000000000e+04
-6.907200000000000000e+04
-6.908900000000000000e+04
-5.431700000000000000e+04
-4.989400000000000000e+04
-5.410200000000000000e+04
-5.317500000000000000e+04
-5.800100000000000000e+04
-5.510900000000000000e+04
-5.906000000000000000e+04
-5.741400000000000000e+04
-4.180200000000000000e+04
-5.130300000000000000e+04
-6.558900000000000000e+04
-5.991200000000000000e+04
-6.237700000000000000e+04
-6.522600000000000000e+04
-4.458100000000000000e+04
-5.175100000000000000e+04
-6.235700000000000000e+04
-6.645900000000000000e+04
-6.557200000000000000e+04
-5.894100000000000000e+04
-4.846400000000000000e+04
-4.603200000000000000e+04
-5.919900000000000000e+04
-6.839900000000000000e+04
-5.431400000000000000e+04
-5.346900000000000000e+04
-5.484600000000000000e+04
-5.119900000000000000e+04
-6.311200000000000000e+04
-6.198700000000000000e+04
-5.364700000000000000e+04
-4.917900000000000000e+04
-5.907600000000000000e+04
-6.362100000000000000e+04
-5.342000000000000000e+04
-5.173500000000000000e+04
-6.307700000000000000e+04
-7.073900000000000000e+04
-5.027700000000000000e+04
-4.196700000000000000e+04
-6.115900000000000000e+04
-6.149100000000000000e+04
-6.164000000000000000e+04
-6.698000000000000000e+04
-6.321000000000000000e+04
-5.061900000000000000e+04
-4.542300000000000000e+04
-6.690700000000000000e+04
-5.462000000000000000e+04
-5.179400000000000000e+04
-5.513600000000000000e+04
-7.079600000000000000e+04
-7.027600000000000000e+04
-7.047900000000000000e+04
-5.721200000000000000e+04
-4.603300000000000000e+04
-4.401600000000000000e+04
-5.331200000000000000e+04
-6.122900000000000000e+04
-6.983100000000000000e+04
-5.923300000000000000e+04
-5.091300000000000000e+04
-4.820400000000000000e+04
-6.121200000000000000e+04
-6.187200000000000000e+04
-5.232300000000000000e+04
-5.598500000000000000e+04
-6.531200000000000000e+04
-6.881200000000000000e+04
-6.068300000000000000e+04
-4.852000000000000000e+04
-6.274800000000000000e+04
-6.691100000000000000e+04
-5.143600000000000000e+04
-5.173600000000000000e+04
-5.862900000000000000e+04
-6.418100000000000000e+04
-6.169500000000000000e+04
-5.419700000000000000e+04
-5.926200000000000000e+04
-5.279700000000000000e+04
-5.940200000000000000e+04
-5.989600000000000000e+04
-6.447400000000000000e+04
-5.928100000000000000e+04
-2.867500000000000000e+04
-4.725600000000000000e+04
-8.178100000000000000e+04
-7.805300000000000000e+04
-5.585800000000000000e+04
-4.807900000000000000e+04
-5.996200000000000000e+04
-6.705400000000000000e+04
-6.619900000000000000e+04
-5.682900000000000000e+04
-4.703500000000000000e+04
-5.714400000000000000e+04
-7.180500000000000000e+04
-6.287200000000000000e+04
-4.723500000000000000e+04
-5.627600000000000000e+04
-6.078800000000000000e+04
-6.432200000000000000e+04
-6.291200000000000000e+04
-6.891400000000000000e+04
-5.597100000000000000e+04
-4.500900000000000000e+04
-6.286700000000000000e+04
-6.454600000000000000e+04
-6.306100000000000000e+04
-5.419100000000000000e+04
-5.077700000000000000e+04
-5.566700000000000000e+04
-6.631600000000000000e+04
-6.763500000000000000e+04
-5.980400000000000000e+04
-4.649200000000000000e+04
-5.181700000000000000e+04
-6.345700000000000000e+04
-6.640200000000000000e+04
-6.711400000000000000e+04
-6.424500000000000000e+04
-5.565700000000000000e+04
-5.248300000000000000e+04
-7.074600000000000000e+04
-7.009900000000000000e+04
-5.690300000000000000e+04
-4.617900000000000000e+04
-5.310000000000000000e+04
-6.792600000000000000e+04
-5.775500000000000000e+04
-5.472900000000000000e+04
-6.951700000000000000e+04
-7.377700000000000000e+04
-5.914500000000000000e+04
-4.981700000000000000e+04
-6.426500000000000000e+04
-6.326600000000000000e+04
-5.360900000000000000e+04
-5.127200000000000000e+04
-5.296600000000000000e+04
-5.808500000000000000e+04
-6.742700000000000000e+04
-6.696300000000000000e+04
-7.212600000000000000e+04
-4.777200000000000000e+04
-4.999400000000000000e+04
-7.127500000000000000e+04
-6.645200000000000000e+04
-5.818600000000000000e+04
-5.856800000000000000e+04
-5.861600000000000000e+04
-6.683900000000000000e+04
-7.023900000000000000e+04
-6.465700000000000000e+04
-5.247800000000000000e+04
-3.980900000000000000e+04
-5.859900000000000000e+04
-7.294700000000000000e+04
-6.163100000000000000e+04
-4.647700000000000000e+04
-6.588300000000000000e+04
-7.379700000000000000e+04
-6.705000000000000000e+04
-5.566600000000000000e+04
-5.285100000000000000e+04
-6.375400000000000000e+04
-6.985000000000000000e+04
-6.419300000000000000e+04
-5.925200000000000000e+04
-5.259400000000000000e+04
-5.739300000000000000e+04
-6.146400000000000000e+04
-7.477700000000000000e+04
-6.877900000000000000e+04
-5.321000000000000000e+04
-5.558300000000000000e+04
-5.774000000000000000e+04
-6.424600000000000000e+04
-6.868100000000000000e+04
-5.849100000000000000e+04
-4.700600000000000000e+04
-6.396800000000000000e+04
-7.800400000000000000e+04
-6.699900000000000000e+04
-6.060500000000000000e+04
-6.428400000000000000e+04
-6.513600000000000000e+04
-6.191600000000000000e+04
-5.824900000000000000e+04
-5.990700000000000000e+04
-5.569600000000000000e+04
-6.122700000000000000e+04
-7.380600000000000000e+04
-7.249900000000000000e+04
-5.616100000000000000e+04
-5.531200000000000000e+04
-5.704400000000000000e+04
-4.994600000000000000e+04
-6.757800000000000000e+04
-6.970700000000000000e+04
-6.894100000000000000e+04
-6.641400000000000000e+04
-5.986000000000000000e+04
-6.211800000000000000e+04
-5.257100000000000000e+04
-4.796900000000000000e+04
-6.666300000000000000e+04
-7.667600000000000000e+04
-7.218200000000000000e+04
-6.463400000000000000e+04
-5.612400000000000000e+04
-5.306400000000000000e+04
-6.769300000000000000e+04
-6.877400000000000000e+04
-5.726300000000000000e+04
-5.653300000000000000e+04
-5.953300000000000000e+04
-6.748000000000000000e+04
-6.821100000000000000e+04
-6.141100000000000000e+04
-5.771100000000000000e+04
-7.130700000000000000e+04
-7.070600000000000000e+04
-6.423700000000000000e+04
-6.309500000000000000e+04
-5.769200000000000000e+04
-5.861700000000000000e+04
-6.825500000000000000e+04
-6.818600000000000000e+04
-5.937900000000000000e+04
-4.954400000000000000e+04
-6.742800000000000000e+04
-7.450500000000000000e+04
-7.081800000000000000e+04
-6.408300000000000000e+04
-5.124900000000000000e+04
-5.776600000000000000e+04
-7.408600000000000000e+04
-7.118700000000000000e+04
-5.684300000000000000e+04
-6.199500000000000000e+04
-6.722500000000000000e+04
-6.291900000000000000e+04
-5.530600000000000000e+04
-5.736700000000000000e+04
-5.472900000000000000e+04
-6.379100000000000000e+04
-8.319800000000000000e+04
-7.681500000000000000e+04
-6.150700000000000000e+04
-5.088500000000000000e+04
-5.830000000000000000e+04
-6.975900000000000000e+04
-6.530600000000000000e+04
-5.436200000000000000e+04
-6.435100000000000000e+04
-7.062900000000000000e+04
-7.118700000000000000e+04
-6.849400000000000000e+04
-6.141000000000000000e+04
-5.565800000000000000e+04
-6.511500000000000000e+04
-6.719200000000000000e+04
-6.075900000000000000e+04
-6.058900000000000000e+04
-6.777400000000000000e+04
-6.957100000000000000e+04
-6.647200000000000000e+04
-6.235700000000000000e+04
-5.987100000000000000e+04
-5.959200000000000000e+04
-6.681600000000000000e+04
-6.648500000000000000e+04
-7.161600000000000000e+04
-6.988900000000000000e+04
-5.667400000000000000e+04
-6.086900000000000000e+04
-7.210800000000000000e+04
-6.748200000000000000e+04
-5.478600000000000000e+04
-5.451600000000000000e+04
-7.228600000000000000e+04
-7.550200000000000000e+04
-7.037100000000000000e+04
-6.541600000000000000e+04
-5.852200000000000000e+04
-5.662400000000000000e+04
-7.217700000000000000e+04
-6.980600000000000000e+04
-6.132800000000000000e+04
-6.331900000000000000e+04
-6.847300000000000000e+04
-7.141600000000000000e+04
-6.565600000000000000e+04
-6.342200000000000000e+04
-5.105200000000000000e+04
-6.215600000000000000e+04
-7.459300000000000000e+04
-7.227000000000000000e+04
-5.455300000000000000e+04
-5.664200000000000000e+04
-6.737400000000000000e+04
-7.160700000000000000e+04
-6.652200000000000000e+04
-6.723000000000000000e+04
-6.423400000000000000e+04
-6.952000000000000000e+04
-6.754600000000000000e+04
-6.008900000000000000e+04
-6.201200000000000000e+04
-5.910000000000000000e+04
-6.219100000000000000e+04
-6.866500000000000000e+04
-7.444700000000000000e+04
-7.011700000000000000e+04
-5.569600000000000000e+04
-5.515600000000000000e+04
-6.623600000000000000e+04
-7.063800000000000000e+04
-6.045500000000000000e+04
-5.661600000000000000e+04
-6.955300000000000000e+04
-6.962600000000000000e+04
-6.811000000000000000e+04
-5.635900000000000000e+04
-4.965400000000000000e+04
-6.904400000000000000e+04
-7.326100000000000000e+04
-6.186600000000000000e+04
-6.449200000000000000e+04
-6.742400000000000000e+04
-7.446600000000000000e+04
-7.460700000000000000e+04
-6.771500000000000000e+04
-6.307000000000000000e+04
-5.383500000000000000e+04
-5.920800000000000000e+04
-7.046200000000000000e+04
-7.056400000000000000e+04
-6.646700000000000000e+04
-6.701900000000000000e+04
-6.679400000000000000e+04
-6.586400000000000000e+04
-5.629200000000000000e+04
-6.128900000000000000e+04
-6.748500000000000000e+04
-6.838500000000000000e+04
-6.723100000000000000e+04
-6.805700000000000000e+04
-5.433900000000000000e+04
-6.251900000000000000e+04
-7.375700000000000000e+04
-7.169900000000000000e+04
-5.775200000000000000e+04
-6.722100000000000000e+04
-6.197200000000000000e+04
-6.556500000000000000e+04
-6.826300000000000000e+04
-6.413100000000000000e+04
-6.717600000000000000e+04
-6.823300000000000000e+04
-7.023500000000000000e+04
-6.713900000000000000e+04
-6.839600000000000000e+04
-6.451400000000000000e+04
-5.663100000000000000e+04
-6.211100000000000000e+04
-7.614200000000000000e+04
-6.820600000000000000e+04
-5.392100000000000000e+04
-6.030400000000000000e+04
-7.060300000000000000e+04
-7.741800000000000000e+04
-6.824300000000000000e+04
-5.534700000000000000e+04
-7.096600000000000000e+04
-6.650900000000000000e+04
-6.705700000000000000e+04
-6.673400000000000000e+04
-6.969700000000000000e+04
-6.332400000000000000e+04
-5.928800000000000000e+04
-6.659400000000000000e+04
-7.370800000000000000e+04
-7.148100000000000000e+04
-6.436700000000000000e+04
-6.060400000000000000e+04
-7.058600000000000000e+04
-7.117400000000000000e+04
-6.544700000000000000e+04
-6.115100000000000000e+04
-7.069500000000000000e+04
-6.998400000000000000e+04
-6.942600000000000000e+04
-7.132400000000000000e+04
-5.945200000000000000e+04
-6.362100000000000000e+04
-7.322000000000000000e+04
-7.013700000000000000e+04
-6.240000000000000000e+04
-5.893000000000000000e+04
-5.519800000000000000e+04
-7.107300000000000000e+04
-7.909800000000000000e+04
-6.871700000000000000e+04
-6.538800000000000000e+04
-6.609600000000000000e+04
-6.854200000000000000e+04
-7.732100000000000000e+04
-6.877200000000000000e+04
-6.256600000000000000e+04
-6.385600000000000000e+04
-6.593600000000000000e+04
-7.004800000000000000e+04
-7.038600000000000000e+04
-6.793700000000000000e+04
-6.697600000000000000e+04
-7.399800000000000000e+04
-6.986200000000000000e+04
-6.629000000000000000e+04
-5.442000000000000000e+04
-6.196100000000000000e+04
-7.645700000000000000e+04
-7.512400000000000000e+04
-6.601300000000000000e+04
-6.239900000000000000e+04
-6.675000000000000000e+04
-7.301600000000000000e+04
-6.885000000000000000e+04
-6.805500000000000000e+04
-6.888300000000000000e+04
-6.451700000000000000e+04
-6.562600000000000000e+04
-7.934500000000000000e+04
-7.662200000000000000e+04
-5.894400000000000000e+04
-5.464600000000000000e+04
-7.167700000000000000e+04
-8.198600000000000000e+04
-7.077800000000000000e+04
-5.785700000000000000e+04
-5.976800000000000000e+04
-7.059600000000000000e+04
-7.389000000000000000e+04
-6.179000000000000000e+04
-6.263100000000000000e+04
-7.244700000000000000e+04
-7.547000000000000000e+04
-6.849600000000000000e+04
-6.546400000000000000e+04
-6.344600000000000000e+04
-7.038200000000000000e+04
-7.664400000000000000e+04
-7.202400000000000000e+04
-6.343700000000000000e+04
-5.954600000000000000e+04
-6.411200000000000000e+04
-7.870700000000000000e+04
-7.237400000000000000e+04
-6.717600000000000000e+04
-6.801300000000000000e+04
-7.039900000000000000e+04
-7.532200000000000000e+04
-7.125400000000000000e+04
-6.532700000000000000e+04
-6.787900000000000000e+04
-6.806400000000000000e+04
-7.058700000000000000e+04
-6.872400000000000000e+04
-7.218500000000000000e+04
-6.929400000000000000e+04
-6.933600000000000000e+04
-7.165000000000000000e+04
-6.718900000000000000e+04
-6.704000000000000000e+04
-6.619900000000000000e+04
-6.283600000000000000e+04
-7.828800000000000000e+04
-7.472500000000000000e+04
-7.605100000000000000e+04
-7.276400000000000000e+04
-6.436100000000000000e+04
-6.872300000000000000e+04
-7.229900000000000000e+04
-6.346700000000000000e+04
-6.344900000000000000e+04
-7.056700000000000000e+04
-7.622600000000000000e+04
-7.645200000000000000e+04
-6.179700000000000000e+04
-6.410300000000000000e+04
-7.441900000000000000e+04
-7.979900000000000000e+04
-6.975100000000000000e+04
-6.391400000000000000e+04
-7.342100000000000000e+04
-6.931200000000000000e+04
-6.492200000000000000e+04
-7.435600000000000000e+04
-7.377400000000000000e+04
-6.866600000000000000e+04
-6.631300000000000000e+04
-7.298100000000000000e+04
-8.300400000000000000e+04
-7.552100000000000000e+04
-6.478700000000000000e+04
-6.181700000000000000e+04
-7.223200000000000000e+04
-7.462500000000000000e+04
-7.367600000000000000e+04
-6.495600000000000000e+04
-6.199700000000000000e+04
-7.121200000000000000e+04
-7.859600000000000000e+04
-6.688500000000000000e+04
-7.151600000000000000e+04
-6.868600000000000000e+04
-7.258900000000000000e+04
-7.241600000000000000e+04
-7.372200000000000000e+04
-7.317100000000000000e+04
-6.693400000000000000e+04
-7.236200000000000000e+04
-6.996900000000000000e+04
-7.271600000000000000e+04
-7.232200000000000000e+04
-7.001000000000000000e+04
-6.946300000000000000e+04
-7.730000000000000000e+04
-8.303300000000000000e+04
-6.978100000000000000e+04
-6.088500000000000000e+04
-7.225100000000000000e+04
-7.905200000000000000e+04
-7.142000000000000000e+04
-6.712300000000000000e+04
-6.435700000000000000e+04
-7.648100000000000000e+04
-8.470600000000000000e+04
-7.764300000000000000e+04
-6.216100000000000000e+04
-5.498900000000000000e+04
-7.877100000000000000e+04
-8.108600000000000000e+04
-7.186800000000000000e+04
-6.820800000000000000e+04
-6.973200000000000000e+04
-7.143700000000000000e+04
-7.522400000000000000e+04
-6.718900000000000000e+04
-5.939100000000000000e+04
-7.690400000000000000e+04
-8.036300000000000000e+04
-7.172200000000000000e+04
-7.048800000000000000e+04
-7.382400000000000000e+04
-7.224900000000000000e+04
-7.303800000000000000e+04
-7.660100000000000000e+04
-7.004200000000000000e+04
-7.071900000000000000e+04
-7.492600000000000000e+04
-7.809400000000000000e+04
-8.046600000000000000e+04
-8.130800000000000000e+04
-7.387700000000000000e+04
-6.907600000000000000e+04
-7.328700000000000000e+04
-7.784300000000000000e+04
-7.806700000000000000e+04
-7.399600000000000000e+04
-6.936900000000000000e+04
-7.421900000000000000e+04
-7.819400000000000000e+04
-7.640700000000000000e+04
-7.145400000000000000e+04
-7.099500000000000000e+04
-7.731500000000000000e+04
-8.150900000000000000e+04
-7.458900000000000000e+04
-6.829200000000000000e+04
-6.700900000000000000e+04
-7.277200000000000000e+04
-7.930100000000000000e+04
-7.678600000000000000e+04
-6.794700000000000000e+04
-6.205200000000000000e+04
-6.945100000000000000e+04
-7.877000000000000000e+04
-8.078600000000000000e+04
-7.545900000000000000e+04
-7.400200000000000000e+04
-7.712800000000000000e+04
-8.105700000000000000e+04
-7.884700000000000000e+04
-7.403100000000000000e+04
-7.125600000000000000e+04
-7.645000000000000000e+04
-8.046400000000000000e+04
-7.872800000000000000e+04
-7.414000000000000000e+04
-7.071500000000000000e+04
-7.665800000000000000e+04
-8.266400000000000000e+04
-8.264600000000000000e+04
-7.814100000000000000e+04
-7.691200000000000000e+04
-8.185300000000000000e+04
-8.589200000000000000e+04
-8.536800000000000000e+04
-8.056800000000000000e+04
-7.603100000000000000e+04
-8.132400000000000000e+04
-8.684400000000000000e+04
-8.569700000000000000e+04
-8.056100000000000000e+04
-7.675200000000000000e+04
-8.147300000000000000e+04
-8.735000000000000000e+04
-8.648400000000000000e+04
-8.319100000000000000e+04
-7.957200000000000000e+04
-8.382300000000000000e+04
-8.796600000000000000e+04
-8.646300000000000000e+04
-7.985000000000000000e+04
-7.650000000000000000e+04
-8.096700000000000000e+04
-8.686900000000000000e+04
-8.720200000000000000e+04
-8.093900000000000000e+04
-7.673500000000000000e+04
-8.130500000000000000e+04
-8.616400000000000000e+04
-8.621700000000000000e+04
-8.116100000000000000e+04
-7.849100000000000000e+04
-8.226800000000000000e+04
-8.735200000000000000e+04
-8.648100000000000000e+04
-8.019300000000000000e+04
-7.672400000000000000e+04
-8.232000000000000000e+04
-8.762000000000000000e+04
-8.743100000000000000e+04
-8.134700000000000000e+04
-7.779000000000000000e+04
-8.250500000000000000e+04
-8.744600000000000000e+04
-8.782100000000000000e+04
-8.152400000000000000e+04
-7.629100000000000000e+04
-8.074000000000000000e+04
-8.639700000000000000e+04
-8.659200000000000000e+04
-8.036800000000000000e+04
-7.544200000000000000e+04
-8.057300000000000000e+04
-8.627400000000000000e+04
-8.622100000000000000e+04
-8.125400000000000000e+04
-7.721500000000000000e+04
-8.031700000000000000e+04
-8.606100000000000000e+04
-8.698600000000000000e+04
-8.192600000000000000e+04
-7.783400000000000000e+04
-8.097100000000000000e+04
-8.686700000000000000e+04
-8.623700000000000000e+04
-8.028200000000000000e+04
-7.656000000000000000e+04
-8.071200000000000000e+04
-8.642600000000000000e+04
-8.575300000000000000e+04
-8.071200000000000000e+04
-7.737700000000000000e+04
-8.159000000000000000e+04
-8.741300000000000000e+04
-8.684600000000000000e+04
-8.194200000000000000e+04
-7.736600000000000000e+04
-8.079700000000000000e+04
-8.621300000000000000e+04
-8.644500000000000000e+04
-8.191400000000000000e+04
-7.708600000000000000e+04
-8.001700000000000000e+04
-8.621600000000000000e+04
-8.721900000000000000e+04
-8.249200000000000000e+04
-7.717000000000000000e+04
-8.004900000000000000e+04
-8.536700000000000000e+04
-8.820900000000000000e+04
-8.260100000000000000e+04
-7.673200000000000000e+04
-8.052900000000000000e+04
-8.642400000000000000e+04
-8.738100000000000000e+04
-8.228700000000000000e+04
-7.686200000000000000e+04
-8.022400000000000000e+04
-8.611400000000000000e+04
-8.663200000000000000e+04
-8.177900000000000000e+04
-7.738700000000000000e+04
-8.013100000000000000e+04
-8.634800000000000000e+04
-8.795400000000000000e+04
-8.290100000000000000e+04
-7.779600000000000000e+04
-8.104600000000000000e+04
-8.626500000000000000e+04
-8.656100000000000000e+04
-8.228100000000000000e+04
-7.738500000000000000e+04
-8.029900000000000000e+04
-8.596800000000000000e+04
-8.730600000000000000e+04
-8.276100000000000000e+04
-7.779400000000000000e+04
-8.070400000000000000e+04
-8.669100000000000000e+04
-8.747400000000000000e+04
-8.289000000000000000e+04
-7.802000000000000000e+04
-8.025100000000000000e+04
-8.626400000000000000e+04
-8.750300000000000000e+04
-8.318200000000000000e+04
-7.787700000000000000e+04
-8.037100000000000000e+04
-8.613100000000000000e+04
-8.771400000000000000e+04
-8.351400000000000000e+04
-7.811300000000000000e+04
-8.035400000000000000e+04
-8.675900000000000000e+04
-8.828700000000000000e+04
-8.354000000000000000e+04
-7.814400000000000000e+04
-8.085600000000000000e+04
-8.639600000000000000e+04
-8.787700000000000000e+04
-8.396200000000000000e+04
-7.909100000000000000e+04
-8.129800000000000000e+04
-8.614400000000000000e+04
-8.840900000000000000e+04
-8.431100000000000000e+04
-7.914400000000000000e+04
-8.091100000000000000e+04
-8.657300000000000000e+04
-8.875200000000000000e+04
-8.448900000000000000e+04
-7.874700000000000000e+04
-8.077600000000000000e+04
-8.672000000000000000e+04
-8.874600000000000000e+04
-8.516300000000000000e+04
-7.965100000000000000e+04
-8.080200000000000000e+04
-8.702200000000000000e+04
-8.946300000000000000e+04
-8.513900000000000000e+04
-7.899700000000000000e+04
-8.060500000000000000e+04
-8.675100000000000000e+04
-8.944100000000000000e+04
-8.545700000000000000e+04
-7.907800000000000000e+04
-8.085500000000000000e+04
-8.721700000000000000e+04
-8.937300000000000000e+04
-8.564200000000000000e+04
-7.970800000000000000e+04
-8.117100000000000000e+04
-8.700300000000000000e+04
-8.915200000000000000e+04
-8.590400000000000000e+04
-8.088000000000000000e+04
-8.077500000000000000e+04
-8.667100000000000000e+04
-8.964400000000000000e+04
-8.574800000000000000e+04
-7.999100000000000000e+04
-8.113200000000000000e+04
-8.776700000000000000e+04
-9.014700000000000000e+04
-8.618300000000000000e+04
-8.024100000000000000e+04
-8.128100000000000000e+04
-8.753200000000000000e+04
-9.005900000000000000e+04
-8.644600000000000000e+04
-8.064600000000000000e+04
-8.169200000000000000e+04
-8.759600000000000000e+04
-9.067900000000000000e+04
-8.743200000000000000e+04
-8.139900000000000000e+04
-8.125100000000000000e+04
-8.660700000000000000e+04
-8.939700000000000000e+04
-8.689200000000000000e+04
-8.109400000000000000e+04
-8.094700000000000000e+04
-8.714300000000000000e+04
-9.044200000000000000e+04
-8.711300000000000000e+04
-8.127000000000000000e+04
-8.181500000000000000e+04
-8.765700000000000000e+04
-9.065400000000000000e+04
-8.767200000000000000e+04
-8.143900000000000000e+04
-8.129200000000000000e+04
-8.766000000000000000e+04
-9.123300000000000000e+04
-8.818300000000000000e+04
-8.247200000000000000e+04
-8.204600000000000000e+04
-8.799900000000000000e+04
-9.098600000000000000e+04
-8.788400000000000000e+04
-8.211700000000000000e+04
-8.196400000000000000e+04
-8.797200000000000000e+04
-9.134300000000000000e+04
-8.833400000000000000e+04
-8.209400000000000000e+04
-8.178600000000000000e+04
-8.805300000000000000e+04
-9.190700000000000000e+04
-8.902600000000000000e+04
-8.271400000000000000e+04
-8.218400000000000000e+04
-8.798100000000000000e+04
-9.154300000000000000e+04
-8.852500000000000000e+04
-8.292100000000000000e+04
-8.274500000000000000e+04
-8.823100000000000000e+04
-9.170200000000000000e+04
-8.963700000000000000e+04
-8.387600000000000000e+04
-8.276000000000000000e+04
-8.849800000000000000e+04
-9.176900000000000000e+04
-8.935000000000000000e+04
-8.369300000000000000e+04
-8.273000000000000000e+04
-8.870100000000000000e+04
-9.235900000000000000e+04
-8.956700000000000000e+04
-8.383900000000000000e+04
-8.274800000000000000e+04
-8.853600000000000000e+04
-9.248200000000000000e+04
-9.016900000000000000e+04
-8.402900000000000000e+04
-8.294200000000000000e+04
-8.913800000000000000e+04
-9.266400000000000000e+04
-8.997100000000000000e+04
-8.404000000000000000e+04
-8.302100000000000000e+04
-8.890700000000000000e+04
-9.295100000000000000e+04
-9.056700000000000000e+04
-8.454500000000000000e+04
-8.264800000000000000e+04
-8.890400000000000000e+04
-9.327200000000000000e+04
-9.108900000000000000e+04
-8.506600000000000000e+04
-8.364500000000000000e+04
-8.860900000000000000e+04
-9.308300000000000000e+04
-9.167700000000000000e+04
-8.544400000000000000e+04
-8.362000000000000000e+04
-8.912900000000000000e+04
-9.310800000000000000e+04
-9.110500000000000000e+04
-8.518900000000000000e+04
-8.363800000000000000e+04
-8.918600000000000000e+04
-9.309500000000000000e+04
-9.135400000000000000e+04
-8.572700000000000000e+04
-8.374100000000000000e+04
-8.951300000000000000e+04
-9.390900000000000000e+04
-9.218100000000000000e+04
-8.625100000000000000e+04
-8.398300000000000000e+04
-8.935600000000000000e+04
-9.397900000000000000e+04
-9.235600000000000000e+04
-8.636600000000000000e+04
-8.411700000000000000e+04
-8.957200000000000000e+04
-9.389000000000000000e+04
-9.252900000000000000e+04
-8.647000000000000000e+04
-8.409400000000000000e+04
-8.929500000000000000e+04
-9.430400000000000000e+04
-9.301900000000000000e+04
-8.694400000000000000e+04
-8.430100000000000000e+04
-8.942700000000000000e+04
-9.415900000000000000e+04
-9.314800000000000000e+04
-8.776900000000000000e+04
-8.466200000000000000e+04
-8.952300000000000000e+04
-9.409900000000000000e+04
-9.267800000000000000e+04
-8.738200000000000000e+04
-8.480900000000000000e+04
-8.964700000000000000e+04
-9.459700000000000000e+04
-9.368200000000000000e+04
-8.762200000000000000e+04
-8.475000000000000000e+04
-8.985600000000000000e+04
-9.444800000000000000e+04
-9.348000000000000000e+04
-8.788000000000000000e+04
-8.477700000000000000e+04
-8.968100000000000000e+04
-9.464000000000000000e+04
-9.376700000000000000e+04
-8.818500000000000000e+04
-8.500200000000000000e+04
-8.992900000000000000e+04
-9.499600000000000000e+04
-9.419200000000000000e+04
-8.865100000000000000e+04
-8.517600000000000000e+04
-8.978300000000000000e+04
-9.500700000000000000e+04
-9.438200000000000000e+04
-8.888600000000000000e+04
-8.566500000000000000e+04
-9.067600000000000000e+04
-9.566200000000000000e+04
-9.528700000000000000e+04
-8.970700000000000000e+04
-8.572900000000000000e+04
-8.977400000000000000e+04
-9.454100000000000000e+04
-9.391000000000000000e+04
-8.873100000000000000e+04
-8.523600000000000000e+04
-8.976500000000000000e+04
-9.535300000000000000e+04
-9.507300000000000000e+04
-8.973600000000000000e+04
-8.608100000000000000e+04
-9.026900000000000000e+04
-9.535700000000000000e+04
-9.548100000000000000e+04
-9.022600000000000000e+04
-8.608700000000000000e+04
-9.037800000000000000e+04
-9.590400000000000000e+04
-9.588900000000000000e+04
-9.068400000000000000e+04
-8.619500000000000000e+04
-9.040900000000000000e+04
-9.599900000000000000e+04
-9.603600000000000000e+04
-9.075900000000000000e+04
-8.646600000000000000e+04
-9.077900000000000000e+04
-9.607900000000000000e+04
-9.620100000000000000e+04
-9.079400000000000000e+04
-8.656300000000000000e+04
-9.080900000000000000e+04
-9.618700000000000000e+04
-9.643500000000000000e+04
-9.155100000000000000e+04
-8.728300000000000000e+04
-9.117100000000000000e+04
-9.648200000000000000e+04
-9.658500000000000000e+04
-9.180900000000000000e+04
-8.750900000000000000e+04
-9.079200000000000000e+04
-9.652600000000000000e+04
-9.706500000000000000e+04
-9.176300000000000000e+04
-8.731100000000000000e+04
-9.100500000000000000e+04
-9.669800000000000000e+04
-9.719100000000000000e+04
-9.212400000000000000e+04
-8.752000000000000000e+04
-9.105700000000000000e+04
-9.714200000000000000e+04
-9.742600000000000000e+04
-9.235700000000000000e+04
-8.758400000000000000e+04
-9.132100000000000000e+04
-9.692700000000000000e+04
-9.779700000000000000e+04
-9.305700000000000000e+04
-8.809400000000000000e+04
-9.105700000000000000e+04
-9.695400000000000000e+04
-9.804700000000000000e+04
-9.316400000000000000e+04
-8.833900000000000000e+04
-9.144400000000000000e+04
-9.719900000000000000e+04
-9.825500000000000000e+04
-9.340300000000000000e+04
-8.846700000000000000e+04
-9.139200000000000000e+04
-9.717900000000000000e+04
-9.803700000000000000e+04
-9.346900000000000000e+04
-8.866400000000000000e+04
-9.144700000000000000e+04
-9.741400000000000000e+04
-9.847600000000000000e+04
-9.393400000000000000e+04
-8.871100000000000000e+04
-9.159300000000000000e+04
-9.760500000000000000e+04
-9.877600000000000000e+04
-9.406400000000000000e+04
-8.889100000000000000e+04
-9.168900000000000000e+04
-9.771500000000000000e+04
-9.908700000000000000e+04
-9.461400000000000000e+04
-8.927500000000000000e+04
-9.152000000000000000e+04
-9.746800000000000000e+04
-9.917900000000000000e+04
-9.467100000000000000e+04
-8.914100000000000000e+04
-9.148600000000000000e+04
-9.769700000000000000e+04
-9.925500000000000000e+04
-9.503600000000000000e+04
-8.966700000000000000e+04
-9.201700000000000000e+04
-9.800700000000000000e+04
-9.947600000000000000e+04
-9.514400000000000000e+04
-8.985700000000000000e+04
-9.198900000000000000e+04
-9.842200000000000000e+04
-1.001930000000000000e+05
-9.567400000000000000e+04
-8.966500000000000000e+04
-9.187600000000000000e+04
-9.807100000000000000e+04
-9.986600000000000000e+04
-9.577900000000000000e+04
-9.019000000000000000e+04
-9.209900000000000000e+04
-9.822100000000000000e+04
-1.002250000000000000e+05
-9.612400000000000000e+04
-9.050300000000000000e+04
-9.219700000000000000e+04
-9.831300000000000000e+04
-1.004860000000000000e+05
-9.641700000000000000e+04
-9.066100000000000000e+04
-9.225600000000000000e+04
-9.829900000000000000e+04
-1.005940000000000000e+05
-9.674900000000000000e+04
-9.098900000000000000e+04
-9.220400000000000000e+04
-9.837700000000000000e+04
-1.007920000000000000e+05
-9.668600000000000000e+04
-9.088700000000000000e+04
-9.225100000000000000e+04
-9.848500000000000000e+04
-1.008020000000000000e+05
-9.695600000000000000e+04
-9.116400000000000000e+04
-9.229100000000000000e+04
-9.848200000000000000e+04
-1.010670000000000000e+05
-9.749700000000000000e+04
-9.170100000000000000e+04
-9.286700000000000000e+04
-9.922700000000000000e+04
-1.020050000000000000e+05
-9.837600000000000000e+04
-9.234600000000000000e+04
-9.323400000000000000e+04
-9.900200000000000000e+04
-1.010080000000000000e+05
-9.710600000000000000e+04
-9.119900000000000000e+04
-9.218500000000000000e+04
-9.860600000000000000e+04
-1.015620000000000000e+05
-9.829600000000000000e+04
-9.212900000000000000e+04
-9.274100000000000000e+04
-9.924200000000000000e+04
-1.022610000000000000e+05
-9.871000000000000000e+04
-9.280700000000000000e+04
-9.312100000000000000e+04
-9.926900000000000000e+04
-1.022190000000000000e+05
-9.898400000000000000e+04
-9.301100000000000000e+04
-9.278900000000000000e+04
-9.885300000000000000e+04
-1.021510000000000000e+05
-9.887100000000000000e+04
-9.268400000000000000e+04
-9.300400000000000000e+04
-9.906500000000000000e+04
-1.023710000000000000e+05
-9.931500000000000000e+04
-9.310900000000000000e+04
-9.301900000000000000e+04
-9.905700000000000000e+04
-1.022320000000000000e+05
-9.919400000000000000e+04
-9.303900000000000000e+04
-9.276400000000000000e+04
-9.881200000000000000e+04
-1.022620000000000000e+05
-9.947600000000000000e+04
-9.333700000000000000e+04
-9.297700000000000000e+04
-9.905700000000000000e+04
-1.025610000000000000e+05
-9.974800000000000000e+04
-9.349300000000000000e+04
-9.297700000000000000e+04
-9.905700000000000000e+04
-1.026670000000000000e+05
-9.990100000000000000e+04
-9.387900000000000000e+04
-9.326100000000000000e+04
-9.904600000000000000e+04
-1.022140000000000000e+05
-9.978200000000000000e+04
-9.391100000000000000e+04
-9.321100000000000000e+04
-9.912700000000000000e+04
-1.027200000000000000e+05
-1.002520000000000000e+05
-9.425400000000000000e+04
-9.331900000000000000e+04
-9.911500000000000000e+04
-1.029870000000000000e+05
-1.004340000000000000e+05
-9.428600000000000000e+04
-9.319000000000000000e+04
-9.921000000000000000e+04
-1.032260000000000000e+05
-1.005860000000000000e+05
-9.445000000000000000e+04
-9.348400000000000000e+04
-9.921600000000000000e+04
-1.031520000000000000e+05
-1.008320000000000000e+05
-9.467600000000000000e+04
-9.322700000000000000e+04
-9.908900000000000000e+04
-1.032910000000000000e+05
-1.011920000000000000e+05
-9.507400000000000000e+04
-9.333400000000000000e+04
-9.883800000000000000e+04
-1.031870000000000000e+05
-1.014470000000000000e+05
-9.537200000000000000e+04
-9.376400000000000000e+04
-9.933000000000000000e+04
-1.037000000000000000e+05
-1.016170000000000000e+05
-9.576000000000000000e+04
-9.361100000000000000e+04
-9.898600000000000000e+04
-1.034860000000000000e+05
-1.016790000000000000e+05
-9.563700000000000000e+04
-9.351100000000000000e+04
-9.899600000000000000e+04
-1.036730000000000000e+05
-1.018790000000000000e+05
-9.588200000000000000e+04
-9.373300000000000000e+04
-9.910700000000000000e+04
-1.033580000000000000e+05
-1.018620000000000000e+05
-9.608900000000000000e+04
-9.357900000000000000e+04
-9.894600000000000000e+04
-1.037270000000000000e+05
-1.022110000000000000e+05
-9.611600000000000000e+04
-9.377900000000000000e+04
-9.939400000000000000e+04
-1.040670000000000000e+05
-1.024020000000000000e+05
-9.641600000000000000e+04
-9.360700000000000000e+04
-9.891000000000000000e+04
-1.037800000000000000e+05
-1.025070000000000000e+05
-9.659200000000000000e+04
-9.392900000000000000e+04
-9.912200000000000000e+04
-1.038550000000000000e+05
-1.024270000000000000e+05
-9.657400000000000000e+04
-9.377600000000000000e+04
-9.896700000000000000e+04
-1.038760000000000000e+05
-1.025690000000000000e+05
-9.667000000000000000e+04
-9.379200000000000000e+04
-9.903700000000000000e+04
-1.041620000000000000e+05
-1.029710000000000000e+05
-9.702700000000000000e+04
-9.395100000000000000e+04
-9.889700000000000000e+04
-1.038740000000000000e+05
-1.030890000000000000e+05
-9.729100000000000000e+04
-9.393200000000000000e+04
-9.876100000000000000e+04
-1.039010000000000000e+05
-1.031180000000000000e+05
-9.751700000000000000e+04
-9.456700000000000000e+04
-9.934700000000000000e+04
-1.042990000000000000e+05
-1.035910000000000000e+05
-9.796500000000000000e+04
-9.454900000000000000e+04
-9.917100000000000000e+04
-1.039890000000000000e+05
-1.027420000000000000e+05
-9.666500000000000000e+04
-9.313400000000000000e+04
-9.799500000000000000e+04
-1.038080000000000000e+05
-1.037310000000000000e+05
-9.794600000000000000e+04
-9.407900000000000000e+04
-9.867100000000000000e+04
-1.042250000000000000e+05
-1.038120000000000000e+05
-9.816100000000000000e+04
-9.420800000000000000e+04
-9.879000000000000000e+04
-1.042900000000000000e+05
-1.040850000000000000e+05
-9.843100000000000000e+04
-9.425600000000000000e+04
-9.868000000000000000e+04
-1.041250000000000000e+05
-1.037740000000000000e+05
-9.831700000000000000e+04
-9.459700000000000000e+04
-9.880300000000000000e+04
-1.043600000000000000e+05
-1.042020000000000000e+05
-9.851300000000000000e+04
-9.422800000000000000e+04
-9.870500000000000000e+04
-1.042220000000000000e+05
-1.042030000000000000e+05
-9.863500000000000000e+04
-9.423900000000000000e+04
-9.861200000000000000e+04
-1.041090000000000000e+05
-1.041600000000000000e+05
-9.885400000000000000e+04
-9.444500000000000000e+04
-9.850700000000000000e+04
-1.045380000000000000e+05
-1.046870000000000000e+05
-9.915700000000000000e+04
-9.453100000000000000e+04
-9.858100000000000000e+04
-1.042350000000000000e+05
-1.045240000000000000e+05
-9.930700000000000000e+04
-9.465700000000000000e+04
-9.855400000000000000e+04
-1.042110000000000000e+05
-1.046010000000000000e+05
-9.929700000000000000e+04
-9.465700000000000000e+04
-9.843900000000000000e+04
-1.041970000000000000e+05
-1.047180000000000000e+05
-9.958000000000000000e+04
-9.490200000000000000e+04
-9.847700000000000000e+04
-1.040750000000000000e+05
-1.046150000000000000e+05
-9.955000000000000000e+04
-9.482700000000000000e+04
-9.843900000000000000e+04
-1.042230000000000000e+05
-1.048430000000000000e+05
-9.993200000000000000e+04
-9.503900000000000000e+04
-9.829000000000000000e+04
-1.044630000000000000e+05
-1.053940000000000000e+05
-9.990100000000000000e+04
-9.484800000000000000e+04
-9.814200000000000000e+04
-1.042030000000000000e+05
-1.049940000000000000e+05
-9.995100000000000000e+04
-9.493900000000000000e+04
-9.803700000000000000e+04
-1.039440000000000000e+05
-1.051220000000000000e+05
-1.005190000000000000e+05
-9.515500000000000000e+04
-9.779700000000000000e+04
-1.038310000000000000e+05
-1.052800000000000000e+05
-1.005290000000000000e+05
-9.515100000000000000e+04
-9.790600000000000000e+04
-1.038540000000000000e+05
-1.050750000000000000e+05
-1.000840000000000000e+05
-9.491600000000000000e+04
-9.769500000000000000e+04
-1.038010000000000000e+05
-1.050690000000000000e+05
-1.005150000000000000e+05
-9.523900000000000000e+04
-9.749600000000000000e+04
-1.039070000000000000e+05
-1.052420000000000000e+05
-1.008140000000000000e+05
-9.524800000000000000e+04
-9.754200000000000000e+04
-1.038990000000000000e+05
-1.054490000000000000e+05
-1.006440000000000000e+05
-9.530400000000000000e+04
-9.754300000000000000e+04
-1.034680000000000000e+05
-1.054240000000000000e+05
-1.011790000000000000e+05
-9.552600000000000000e+04
-9.742100000000000000e+04
-1.035790000000000000e+05
-1.054930000000000000e+05
-1.011960000000000000e+05
-9.539400000000000000e+04
-9.720600000000000000e+04
-1.038430000000000000e+05
-1.054630000000000000e+05
-1.010450000000000000e+05
-9.533700000000000000e+04
-9.731800000000000000e+04
-1.037690000000000000e+05
-1.055910000000000000e+05
-1.013370000000000000e+05
-9.554200000000000000e+04
-9.738100000000000000e+04
-1.035490000000000000e+05
-1.053730000000000000e+05
-1.012710000000000000e+05
-9.560200000000000000e+04
-9.734200000000000000e+04
-1.036790000000000000e+05
-1.057460000000000000e+05
-1.013960000000000000e+05
-9.546700000000000000e+04
-9.707400000000000000e+04
-1.034840000000000000e+05
-1.059210000000000000e+05
-1.014960000000000000e+05
-9.571800000000000000e+04
-9.727700000000000000e+04
-1.034510000000000000e+05
-1.060150000000000000e+05
-1.022620000000000000e+05
-9.653600000000000000e+04
-9.760900000000000000e+04
-1.037460000000000000e+05
-1.060330000000000000e+05
-1.014930000000000000e+05
-9.505900000000000000e+04
-9.597500000000000000e+04
-1.024780000000000000e+05
-1.052670000000000000e+05
-1.018180000000000000e+05
-9.585000000000000000e+04
-9.678700000000000000e+04
-1.032810000000000000e+05
-1.058080000000000000e+05
-1.018970000000000000e+05
-9.613900000000000000e+04
-9.695500000000000000e+04
-1.030070000000000000e+05
-1.057290000000000000e+05
-1.021210000000000000e+05
-9.605600000000000000e+04
-9.667900000000000000e+04
-1.029560000000000000e+05
-1.058220000000000000e+05
-1.021460000000000000e+05
-9.625100000000000000e+04
-9.693700000000000000e+04
-1.030660000000000000e+05
-1.056660000000000000e+05
-1.024340000000000000e+05
-9.635900000000000000e+04
-9.659700000000000000e+04
-1.026770000000000000e+05
-1.057210000000000000e+05
-1.025750000000000000e+05
-9.644900000000000000e+04
-9.645600000000000000e+04
-1.025520000000000000e+05
-1.057600000000000000e+05
-1.026040000000000000e+05
-9.642200000000000000e+04
-9.636800000000000000e+04
-1.025310000000000000e+05
-1.059200000000000000e+05
-1.030470000000000000e+05
-9.686200000000000000e+04
-9.647900000000000000e+04
-1.024920000000000000e+05
-1.060090000000000000e+05
-1.030050000000000000e+05
-9.651900000000000000e+04
-9.608700000000000000e+04
-1.022990000000000000e+05
-1.059260000000000000e+05
-1.029510000000000000e+05
-9.709200000000000000e+04
-9.673500000000000000e+04
-1.026070000000000000e+05
-1.060910000000000000e+05
-1.032670000000000000e+05
-9.710700000000000000e+04
-9.649900000000000000e+04
-1.023910000000000000e+05
-1.060700000000000000e+05
-1.034260000000000000e+05
-9.726200000000000000e+04
-9.674400000000000000e+04
-1.026560000000000000e+05
-1.060300000000000000e+05
-1.034500000000000000e+05
-9.744900000000000000e+04
-9.638200000000000000e+04
-1.022610000000000000e+05
-1.060670000000000000e+05
-1.036040000000000000e+05
-9.749300000000000000e+04
-9.644500000000000000e+04
-1.023690000000000000e+05
-1.061690000000000000e+05
-1.035190000000000000e+05
-9.734600000000000000e+04
-9.635200000000000000e+04
-1.023660000000000000e+05
-1.063390000000000000e+05
-1.037840000000000000e+05
-9.764800000000000000e+04
-9.634300000000000000e+04
-1.020710000000000000e+05
-1.060970000000000000e+05
-1.039860000000000000e+05
-9.779900000000000000e+04
-9.632800000000000000e+04
-1.020940000000000000e+05
-1.062880000000000000e+05
-1.038260000000000000e+05
-9.771100000000000000e+04
-9.643900000000000000e+04
-1.020820000000000000e+05
-1.060970000000000000e+05
-1.040610000000000000e+05
-9.795100000000000000e+04
-9.616800000000000000e+04
-1.017960000000000000e+05
-1.062460000000000000e+05
-1.044520000000000000e+05
-9.811800000000000000e+04
-9.606400000000000000e+04
-1.017060000000000000e+05
-1.061560000000000000e+05
-1.041260000000000000e+05
-9.820000000000000000e+04
-9.635500000000000000e+04
-1.018190000000000000e+05
-1.061530000000000000e+05
-1.042770000000000000e+05
-9.832700000000000000e+04
-9.624700000000000000e+04
-1.017960000000000000e+05
-1.063310000000000000e+05
-1.048230000000000000e+05
-9.840400000000000000e+04
-9.626400000000000000e+04
-1.018740000000000000e+05
-1.061800000000000000e+05
-1.045730000000000000e+05
-9.879400000000000000e+04
-9.637400000000000000e+04
-1.015710000000000000e+05
-1.062410000000000000e+05
-1.047940000000000000e+05
-9.870900000000000000e+04
-9.617100000000000000e+04
-1.013610000000000000e+05
-1.061270000000000000e+05
-1.048320000000000000e+05
-9.905000000000000000e+04
-9.613400000000000000e+04
-1.015110000000000000e+05
-1.064270000000000000e+05
-1.048410000000000000e+05
-9.890700000000000000e+04
-9.633200000000000000e+04
-1.014110000000000000e+05
-1.063290000000000000e+05
-1.050440000000000000e+05
-9.916200000000000000e+04
-9.630200000000000000e+04
-1.013920000000000000e+05
-1.063350000000000000e+05
-1.054570000000000000e+05
-9.956400000000000000e+04
-9.656900000000000000e+04
-1.020120000000000000e+05
-1.071210000000000000e+05
-1.060410000000000000e+05
-9.974400000000000000e+04
-9.612800000000000000e+04
-1.006280000000000000e+05
-1.052680000000000000e+05
-1.045560000000000000e+05
-9.881700000000000000e+04
-9.578500000000000000e+04
-1.011340000000000000e+05
-1.063060000000000000e+05
-1.054350000000000000e+05
-9.966500000000000000e+04
-9.628700000000000000e+04
-1.011580000000000000e+05
-1.062870000000000000e+05
-1.056340000000000000e+05
-9.964700000000000000e+04
-9.615700000000000000e+04
-1.009380000000000000e+05
-1.062620000000000000e+05
-1.057270000000000000e+05
-9.984400000000000000e+04
-9.620700000000000000e+04
-1.008510000000000000e+05
-1.060570000000000000e+05
-1.055970000000000000e+05
-1.001170000000000000e+05
-9.645200000000000000e+04
-1.010910000000000000e+05
-1.061130000000000000e+05
-1.057440000000000000e+05
-1.002890000000000000e+05
-9.638800000000000000e+04
-1.007210000000000000e+05
-1.060300000000000000e+05
-1.056640000000000000e+05
-1.003270000000000000e+05
-9.641800000000000000e+04
-1.008420000000000000e+05
-1.062940000000000000e+05
-1.058990000000000000e+05
-1.004660000000000000e+05
-9.657300000000000000e+04
-1.005260000000000000e+05
-1.058690000000000000e+05
-1.060450000000000000e+05
-1.004190000000000000e+05
-9.634600000000000000e+04
-1.005230000000000000e+05
-1.060090000000000000e+05
-1.060440000000000000e+05
-1.006060000000000000e+05
-9.634900000000000000e+04
-1.005080000000000000e+05
-1.060240000000000000e+05
-1.060570000000000000e+05
-1.008590000000000000e+05
-9.659900000000000000e+04
-1.007550000000000000e+05
-1.062460000000000000e+05
-1.062420000000000000e+05
-1.008050000000000000e+05
-9.653400000000000000e+04
-1.003480000000000000e+05
-1.060660000000000000e+05
-1.063150000000000000e+05
-1.009510000000000000e+05
-9.644400000000000000e+04
-1.003810000000000000e+05
-1.060390000000000000e+05
-1.065090000000000000e+05
-1.015100000000000000e+05
-9.680500000000000000e+04
-1.002890000000000000e+05
-1.060670000000000000e+05
-1.063420000000000000e+05
-1.011380000000000000e+05
-9.651600000000000000e+04
-1.001460000000000000e+05
-1.056800000000000000e+05
-1.062810000000000000e+05
-1.012820000000000000e+05
-9.651400000000000000e+04
-9.992600000000000000e+04
-1.057340000000000000e+05
-1.066950000000000000e+05
-1.017810000000000000e+05
-9.658400000000000000e+04
-9.997900000000000000e+04
-1.058860000000000000e+05
-1.064780000000000000e+05
-1.015770000000000000e+05
-9.672700000000000000e+04
-9.996600000000000000e+04
-1.056940000000000000e+05
-1.066060000000000000e+05
-1.016390000000000000e+05
-9.643000000000000000e+04
-9.962000000000000000e+04
-1.057480000000000000e+05
-1.068530000000000000e+05
-1.019730000000000000e+05
-9.675100000000000000e+04
-9.962700000000000000e+04
-1.056640000000000000e+05
-1.069240000000000000e+05
-1.022620000000000000e+05
-9.714700000000000000e+04
-9.954900000000000000e+04
-1.054430000000000000e+05
-1.067920000000000000e+05
-1.021770000000000000e+05
-9.690700000000000000e+04
-9.959800000000000000e+04
-1.054990000000000000e+05
-1.066850000000000000e+05
-1.021780000000000000e+05
-9.696200000000000000e+04
-9.969200000000000000e+04
-1.057050000000000000e+05
-1.067560000000000000e+05
-1.022650000000000000e+05
-9.699700000000000000e+04
-9.936700000000000000e+04
-1.053910000000000000e+05
-1.070540000000000000e+05
-1.026490000000000000e+05
-9.709600000000000000e+04
-9.927400000000000000e+04
-1.051060000000000000e+05
-1.072540000000000000e+05
-1.029520000000000000e+05
-9.693100000000000000e+04
-9.907600000000000000e+04
-1.054150000000000000e+05
-1.070090000000000000e+05
-1.028230000000000000e+05
-9.731700000000000000e+04
-9.926400000000000000e+04
-1.051820000000000000e+05
-1.071260000000000000e+05
-1.031050000000000000e+05
-9.747000000000000000e+04
-9.921600000000000000e+04
-1.053510000000000000e+05
-1.074220000000000000e+05
-1.034490000000000000e+05
-9.769400000000000000e+04
-9.949600000000000000e+04
-1.058590000000000000e+05
-1.078080000000000000e+05
-1.041140000000000000e+05
-9.809200000000000000e+04
-9.922900000000000000e+04
-1.050390000000000000e+05
-1.067050000000000000e+05
-1.023370000000000000e+05
-9.653100000000000000e+04
-9.808500000000000000e+04
-1.047690000000000000e+05
-1.071770000000000000e+05
-1.034910000000000000e+05
-9.782600000000000000e+04
-9.913400000000000000e+04
-1.048970000000000000e+05
-1.071310000000000000e+05
-1.036260000000000000e+05
-9.788400000000000000e+04
-9.896600000000000000e+04
-1.050540000000000000e+05
-1.075100000000000000e+05
-1.037210000000000000e+05
-9.745900000000000000e+04
-9.857000000000000000e+04
-1.050900000000000000e+05
-1.075670000000000000e+05
-1.038760000000000000e+05
-9.794200000000000000e+04
-9.867000000000000000e+04
-1.047510000000000000e+05
-1.075380000000000000e+05
-1.039600000000000000e+05
-9.793400000000000000e+04
-9.849600000000000000e+04
-1.046970000000000000e+05
-1.073710000000000000e+05
-1.036780000000000000e+05
-9.784300000000000000e+04
-9.855900000000000000e+04
-1.046560000000000000e+05
-1.072160000000000000e+05
-1.039120000000000000e+05
-9.800900000000000000e+04
-9.832800000000000000e+04
-1.042660000000000000e+05
-1.072940000000000000e+05
-1.040850000000000000e+05
-9.817700000000000000e+04
-9.845000000000000000e+04
-1.042710000000000000e+05
-1.074100000000000000e+05
-1.042530000000000000e+05
-9.811300000000000000e+04
-9.828900000000000000e+04
-1.041970000000000000e+05
-1.073720000000000000e+05
-1.041940000000000000e+05
-9.791100000000000000e+04
-9.802700000000000000e+04
-1.044430000000000000e+05
-1.078570000000000000e+05
-1.044260000000000000e+05
-9.811600000000000000e+04
-9.788400000000000000e+04
-1.039850000000000000e+05
-1.074160000000000000e+05
-1.046260000000000000e+05
-9.827100000000000000e+04
-9.780600000000000000e+04
-1.040270000000000000e+05
-1.076310000000000000e+05
-1.046880000000000000e+05
-9.844100000000000000e+04
-9.796400000000000000e+04
-1.041770000000000000e+05
-1.077690000000000000e+05
-1.047550000000000000e+05
-9.842400000000000000e+04
-9.782200000000000000e+04
-1.036940000000000000e+05
-1.072770000000000000e+05
-1.047410000000000000e+05
-9.857000000000000000e+04
-9.768400000000000000e+04
-1.036470000000000000e+05
-1.071710000000000000e+05
-1.046340000000000000e+05
-9.857100000000000000e+04
-9.770700000000000000e+04
-1.036790000000000000e+05
-1.072660000000000000e+05
-1.047180000000000000e+05
-9.857700000000000000e+04
-9.765200000000000000e+04
-1.035860000000000000e+05
-1.073630000000000000e+05
-1.047430000000000000e+05
-9.849200000000000000e+04
-9.776700000000000000e+04
-1.039410000000000000e+05
-1.073470000000000000e+05
-1.048890000000000000e+05
-9.894700000000000000e+04
-9.746600000000000000e+04
-1.034330000000000000e+05
-1.075760000000000000e+05
-1.051840000000000000e+05
-9.898200000000000000e+04
-9.746700000000000000e+04
-1.034120000000000000e+05
-1.073930000000000000e+05
-1.050580000000000000e+05
-9.884400000000000000e+04
-9.728100000000000000e+04
-1.031310000000000000e+05
-1.074030000000000000e+05
-1.052190000000000000e+05
-9.885700000000000000e+04
-9.716900000000000000e+04
-1.029440000000000000e+05
-1.073090000000000000e+05
-1.052800000000000000e+05
-9.918500000000000000e+04
-9.753600000000000000e+04
-1.029310000000000000e+05
-1.069970000000000000e+05
-1.052940000000000000e+05
-9.915700000000000000e+04
-9.697900000000000000e+04
-1.028330000000000000e+05
-1.073550000000000000e+05
-1.055070000000000000e+05
-9.930200000000000000e+04
-9.695400000000000000e+04
-1.025580000000000000e+05
-1.071790000000000000e+05
-1.055030000000000000e+05
-9.937000000000000000e+04
-9.724100000000000000e+04
-1.028320000000000000e+05
-1.070460000000000000e+05
-1.053690000000000000e+05
-9.943300000000000000e+04
-9.721600000000000000e+04
-1.025470000000000000e+05
-1.070220000000000000e+05
-1.055080000000000000e+05
-9.942100000000000000e+04
-9.674900000000000000e+04
-1.023120000000000000e+05
-1.071660000000000000e+05
-1.059060000000000000e+05
-1.000430000000000000e+05
-9.767900000000000000e+04
-1.030050000000000000e+05
-1.077990000000000000e+05
-1.064370000000000000e+05
-1.000770000000000000e+05
-9.664500000000000000e+04
-1.014220000000000000e+05
-1.061040000000000000e+05
-1.050310000000000000e+05
-9.931900000000000000e+04
-9.658400000000000000e+04
-1.019710000000000000e+05
-1.069270000000000000e+05
-1.059530000000000000e+05
-1.001370000000000000e+05
-9.713000000000000000e+04
-1.022140000000000000e+05
-1.069960000000000000e+05
-1.058220000000000000e+05
-1.000090000000000000e+05
-9.702900000000000000e+04
-1.020910000000000000e+05
-1.070050000000000000e+05
-1.061770000000000000e+05
-1.000320000000000000e+05
-9.662500000000000000e+04
-1.016410000000000000e+05
-1.069220000000000000e+05
-1.060200000000000000e+05
-1.001890000000000000e+05
-9.694600000000000000e+04
-1.018290000000000000e+05
-1.065660000000000000e+05
-1.059880000000000000e+05
-1.004980000000000000e+05
-9.701600000000000000e+04
-1.015090000000000000e+05
-1.067010000000000000e+05
-1.061370000000000000e+05
-1.006570000000000000e+05
-9.698200000000000000e+04
-1.015600000000000000e+05
-1.067670000000000000e+05
-1.063230000000000000e+05
-1.004910000000000000e+05
-9.678800000000000000e+04
-1.013260000000000000e+05
-1.066470000000000000e+05
-1.063070000000000000e+05
-1.006220000000000000e+05
-9.689400000000000000e+04
-1.014070000000000000e+05
-1.065560000000000000e+05
-1.063460000000000000e+05
-1.009420000000000000e+05
-9.678200000000000000e+04
-1.013260000000000000e+05
-1.065180000000000000e+05
-1.060920000000000000e+05
-1.006190000000000000e+05
-9.678600000000000000e+04
-1.009940000000000000e+05
-1.060970000000000000e+05
-1.059900000000000000e+05
-1.006100000000000000e+05
-9.583200000000000000e+04
-1.004090000000000000e+05
-1.067590000000000000e+05
-1.070490000000000000e+05
-1.014970000000000000e+05
-9.710500000000000000e+04
-1.009430000000000000e+05
-1.066530000000000000e+05
-1.069410000000000000e+05
-1.013640000000000000e+05
-9.663000000000000000e+04
-1.005660000000000000e+05
-1.063420000000000000e+05
-1.066680000000000000e+05
-1.010840000000000000e+05
-9.650700000000000000e+04
-1.004240000000000000e+05
-1.058560000000000000e+05
-1.064810000000000000e+05
-1.016640000000000000e+05
-9.706300000000000000e+04
-1.007200000000000000e+05
-1.062390000000000000e+05
-1.069350000000000000e+05
-1.017760000000000000e+05
-9.707200000000000000e+04
-1.009250000000000000e+05
-1.065210000000000000e+05
-1.066760000000000000e+05
-1.017800000000000000e+05
-9.696600000000000000e+04
-1.004990000000000000e+05
-1.061660000000000000e+05
-1.069150000000000000e+05
-1.019670000000000000e+05
-9.700000000000000000e+04
-1.002770000000000000e+05
-1.060880000000000000e+05
-1.071260000000000000e+05
-1.021750000000000000e+05
-9.711900000000000000e+04
-1.001070000000000000e+05
-1.064340000000000000e+05
-1.076430000000000000e+05
-1.026610000000000000e+05
-9.717400000000000000e+04
-9.995800000000000000e+04
-1.059230000000000000e+05
-1.071510000000000000e+05
-1.022730000000000000e+05
-9.717100000000000000e+04
-1.000460000000000000e+05
-1.059610000000000000e+05
-1.069020000000000000e+05
-1.018550000000000000e+05
-9.685100000000000000e+04
-1.004340000000000000e+05
-1.063250000000000000e+05
-1.073560000000000000e+05
-1.025760000000000000e+05
-9.734900000000000000e+04
-1.001570000000000000e+05
-1.062320000000000000e+05
-1.075140000000000000e+05
-1.028410000000000000e+05
-9.742600000000000000e+04
-9.972800000000000000e+04
-1.057870000000000000e+05
-1.074660000000000000e+05
-1.026220000000000000e+05
-9.688100000000000000e+04
-9.921700000000000000e+04
-1.036200000000000000e+05
-1.030340000000000000e+05
-1.001450000000000000e+05
-9.763700000000000000e+04
-9.846500000000000000e+04
-1.020600000000000000e+05
-1.057690000000000000e+05
-1.039160000000000000e+05
-9.803200000000000000e+04
-9.975700000000000000e+04
-1.066460000000000000e+05
-1.089140000000000000e+05
-1.037720000000000000e+05
-9.782100000000000000e+04
-1.002070000000000000e+05
-1.064310000000000000e+05
-1.083120000000000000e+05
-1.039770000000000000e+05
-9.809200000000000000e+04
-9.987200000000000000e+04
-1.056170000000000000e+05
-1.072720000000000000e+05
-1.029060000000000000e+05
-9.726600000000000000e+04
-9.874000000000000000e+04
-1.051540000000000000e+05
-1.077320000000000000e+05
-1.038930000000000000e+05
-9.800400000000000000e+04
-9.948800000000000000e+04
-1.054510000000000000e+05
-1.070440000000000000e+05
-1.026890000000000000e+05
-9.662700000000000000e+04
-9.568400000000000000e+04
-9.927600000000000000e+04
-9.806100000000000000e+04
-8.988400000000000000e+04
-8.734400000000000000e+04
-9.793200000000000000e+04
-1.050740000000000000e+05
-1.012640000000000000e+05
-9.716300000000000000e+04
-9.483500000000000000e+04
-9.321900000000000000e+04
-9.956900000000000000e+04
-1.047540000000000000e+05
-1.023160000000000000e+05
-9.163500000000000000e+04
-9.037900000000000000e+04
-9.718100000000000000e+04
-9.984900000000000000e+04
-9.147600000000000000e+04
-8.841300000000000000e+04
-9.312700000000000000e+04
-1.000480000000000000e+05
-9.883600000000000000e+04
-9.189700000000000000e+04
-8.284200000000000000e+04
-8.003200000000000000e+04
-9.058800000000000000e+04
-9.629700000000000000e+04
-8.456600000000000000e+04
-6.546400000000000000e+04
-7.556400000000000000e+04
-9.477300000000000000e+04
-9.032400000000000000e+04
-8.381200000000000000e+04
-8.589400000000000000e+04
-8.909400000000000000e+04
-8.541700000000000000e+04
-8.551900000000000000e+04
-8.636600000000000000e+04
-9.092200000000000000e+04
-8.576100000000000000e+04
-7.913400000000000000e+04
-8.814600000000000000e+04
-8.021900000000000000e+04
-6.643700000000000000e+04
-7.882100000000000000e+04
-8.759800000000000000e+04
-8.748100000000000000e+04
-9.342300000000000000e+04
-8.380700000000000000e+04
-6.718700000000000000e+04
-7.587700000000000000e+04
-9.487700000000000000e+04
-9.702900000000000000e+04
-7.935200000000000000e+04
-7.754900000000000000e+04
-8.936800000000000000e+04
-8.901700000000000000e+04
-7.694200000000000000e+04
-7.650600000000000000e+04
-7.663500000000000000e+04
-8.123400000000000000e+04
-8.945400000000000000e+04
-9.114800000000000000e+04
-9.039400000000000000e+04
-7.984900000000000000e+04
-8.011900000000000000e+04
-9.630400000000000000e+04
-9.746100000000000000e+04
-8.412100000000000000e+04
-7.946600000000000000e+04
-8.333200000000000000e+04
-8.694400000000000000e+04
-9.268700000000000000e+04
-8.253900000000000000e+04
-7.308400000000000000e+04
-7.438400000000000000e+04
-9.175700000000000000e+04
-1.034820000000000000e+05
-8.779400000000000000e+04
-7.363600000000000000e+04
-7.171700000000000000e+04
-9.383700000000000000e+04
-9.874800000000000000e+04
-7.722200000000000000e+04
-7.569700000000000000e+04
-8.910100000000000000e+04
-9.063500000000000000e+04
-8.086100000000000000e+04
-7.627100000000000000e+04
-8.969100000000000000e+04
-9.144200000000000000e+04
-8.204900000000000000e+04
-8.612700000000000000e+04
-8.365600000000000000e+04
-7.612400000000000000e+04
-8.309900000000000000e+04
-9.494200000000000000e+04
-9.325100000000000000e+04
-7.960100000000000000e+04
-7.473900000000000000e+04
-7.695700000000000000e+04
-6.885800000000000000e+04
-7.546600000000000000e+04
-7.984700000000000000e+04
-8.466100000000000000e+04
-8.831700000000000000e+04
-8.767200000000000000e+04
-9.529900000000000000e+04
-7.852500000000000000e+04
-7.952500000000000000e+04
-8.737900000000000000e+04
-8.595700000000000000e+04
-7.860200000000000000e+04
-7.617700000000000000e+04
-8.454100000000000000e+04
-9.557500000000000000e+04
-8.885000000000000000e+04
-7.830400000000000000e+04
-7.396900000000000000e+04
-8.283100000000000000e+04
-8.714300000000000000e+04
-8.059500000000000000e+04
-8.765100000000000000e+04
-8.627400000000000000e+04
-7.490300000000000000e+04
-8.513400000000000000e+04
-9.362700000000000000e+04
-8.861200000000000000e+04
-7.686400000000000000e+04
-7.957700000000000000e+04
-8.042100000000000000e+04
-8.796600000000000000e+04
-8.438000000000000000e+04
-7.616600000000000000e+04
-8.419200000000000000e+04
-9.118600000000000000e+04
-9.255100000000000000e+04
-9.041100000000000000e+04
-8.517900000000000000e+04
-8.290400000000000000e+04
-8.481400000000000000e+04
-8.787700000000000000e+04
-8.610400000000000000e+04
-8.263600000000000000e+04
-7.749400000000000000e+04
-7.281400000000000000e+04
-8.256400000000000000e+04
-9.006800000000000000e+04
-8.354100000000000000e+04
-8.383400000000000000e+04
-8.908800000000000000e+04
-9.444300000000000000e+04
-8.128700000000000000e+04
-8.197300000000000000e+04
-8.254400000000000000e+04
-8.304900000000000000e+04
-8.920000000000000000e+04
-8.912300000000000000e+04
-7.981600000000000000e+04
-8.318400000000000000e+04
-9.240700000000000000e+04
-9.259700000000000000e+04
-8.541700000000000000e+04
-7.754200000000000000e+04
-7.328700000000000000e+04
-8.546700000000000000e+04
-9.123500000000000000e+04
-8.897500000000000000e+04
-7.945600000000000000e+04
-7.849200000000000000e+04
-9.205700000000000000e+04
-9.334000000000000000e+04
-8.490900000000000000e+04
-7.756300000000000000e+04
-8.193100000000000000e+04
-9.194100000000000000e+04
-9.102900000000000000e+04
-9.266900000000000000e+04
-9.042500000000000000e+04
-8.393700000000000000e+04
-7.934600000000000000e+04
-8.079900000000000000e+04
-8.560700000000000000e+04
-8.737700000000000000e+04
-8.497700000000000000e+04
-8.501000000000000000e+04
-8.738700000000000000e+04
-8.280900000000000000e+04
-9.138200000000000000e+04
-8.517900000000000000e+04
-8.443200000000000000e+04
-8.528100000000000000e+04
-8.861100000000000000e+04
-8.789000000000000000e+04
-8.222800000000000000e+04
-8.638300000000000000e+04
-8.559100000000000000e+04
-9.716300000000000000e+04
-8.977300000000000000e+04
-7.926300000000000000e+04
-8.016900000000000000e+04
-8.628700000000000000e+04
-8.257200000000000000e+04
-9.026700000000000000e+04
-8.865100000000000000e+04
-8.406600000000000000e+04
-9.711500000000000000e+04
-9.635400000000000000e+04
-8.820200000000000000e+04
-7.261900000000000000e+04
-7.407000000000000000e+04
-9.334600000000000000e+04
-8.906600000000000000e+04
-8.348900000000000000e+04
-8.281700000000000000e+04
-9.465900000000000000e+04
-9.261200000000000000e+04
-8.627600000000000000e+04
-7.709300000000000000e+04
-7.810900000000000000e+04
-9.462000000000000000e+04
-9.490700000000000000e+04
-8.843200000000000000e+04
-8.698900000000000000e+04
-8.212300000000000000e+04
-8.580100000000000000e+04
-9.263600000000000000e+04
-8.667600000000000000e+04
-8.417100000000000000e+04
-8.156700000000000000e+04
-8.763600000000000000e+04
-1.006740000000000000e+05
-9.800100000000000000e+04
-8.290600000000000000e+04
-7.533900000000000000e+04
-7.995500000000000000e+04
-8.961300000000000000e+04
-8.943700000000000000e+04
-8.814400000000000000e+04
-8.660600000000000000e+04
-8.351200000000000000e+04
-9.047700000000000000e+04
-9.190900000000000000e+04
-8.993400000000000000e+04
-8.081700000000000000e+04
-8.283600000000000000e+04
-8.480000000000000000e+04
-8.615500000000000000e+04
-9.515700000000000000e+04
-8.970700000000000000e+04
-8.501600000000000000e+04
-8.967200000000000000e+04
-9.302200000000000000e+04
-8.274900000000000000e+04
-7.413500000000000000e+04
-8.775900000000000000e+04
-9.744700000000000000e+04
-9.577900000000000000e+04
-8.733300000000000000e+04
-8.161600000000000000e+04
-8.235100000000000000e+04
-8.908200000000000000e+04
-8.793600000000000000e+04
-8.571700000000000000e+04
-8.183900000000000000e+04
-8.239400000000000000e+04
-9.036900000000000000e+04
-9.456400000000000000e+04
-7.745600000000000000e+04
-8.091200000000000000e+04
-8.983900000000000000e+04
-9.674600000000000000e+04
-9.425200000000000000e+04
-8.976900000000000000e+04
-7.740900000000000000e+04
-7.915900000000000000e+04
-8.487200000000000000e+04
-9.478700000000000000e+04
-8.727000000000000000e+04
-8.322900000000000000e+04
-9.098500000000000000e+04
-8.862100000000000000e+04
-8.145900000000000000e+04
-7.886300000000000000e+04
-7.395500000000000000e+04
-8.811200000000000000e+04
-1.033020000000000000e+05
-9.444400000000000000e+04
-8.323800000000000000e+04
-8.494700000000000000e+04
-8.286200000000000000e+04
-8.576800000000000000e+04
-9.296600000000000000e+04
-8.815600000000000000e+04
-7.708500000000000000e+04
-8.512900000000000000e+04
-8.511000000000000000e+04
-8.799800000000000000e+04
-8.610200000000000000e+04
-8.571300000000000000e+04
-8.014900000000000000e+04
-8.439000000000000000e+04
-9.655400000000000000e+04
-9.147800000000000000e+04
-7.624400000000000000e+04
-8.247200000000000000e+04
-9.278400000000000000e+04
-9.667500000000000000e+04
-9.284900000000000000e+04
-8.419400000000000000e+04
-8.532700000000000000e+04
-8.894000000000000000e+04
-8.922700000000000000e+04
-8.082700000000000000e+04
-7.530600000000000000e+04
-8.809300000000000000e+04
-9.385700000000000000e+04
-9.159700000000000000e+04
-8.511000000000000000e+04
-8.680100000000000000e+04
-8.293200000000000000e+04
-8.525100000000000000e+04
-9.038000000000000000e+04
-8.668400000000000000e+04
-8.094300000000000000e+04
-8.590700000000000000e+04
-9.065400000000000000e+04
-9.143200000000000000e+04
-9.326100000000000000e+04
-8.417700000000000000e+04
-7.812200000000000000e+04
-8.404800000000000000e+04
-9.439000000000000000e+04
-9.503500000000000000e+04
-8.647900000000000000e+04
-8.577200000000000000e+04
-8.653300000000000000e+04
-8.927600000000000000e+04
-8.810600000000000000e+04
-8.311900000000000000e+04
-8.177800000000000000e+04
-9.143900000000000000e+04
-9.408700000000000000e+04
-9.336600000000000000e+04
-8.318300000000000000e+04
-7.274300000000000000e+04
-7.760200000000000000e+04
-1.003270000000000000e+05
-1.010110000000000000e+05
-8.863800000000000000e+04
-8.555800000000000000e+04
-8.774600000000000000e+04
-9.752400000000000000e+04
-9.294600000000000000e+04
-8.166800000000000000e+04
-8.191900000000000000e+04
-8.477200000000000000e+04
-8.668300000000000000e+04
-8.859900000000000000e+04
-8.538900000000000000e+04
-8.982800000000000000e+04
-9.389400000000000000e+04
-9.450000000000000000e+04
-8.545200000000000000e+04
-8.440400000000000000e+04
-7.902300000000000000e+04
-9.050100000000000000e+04
-9.631300000000000000e+04
-8.758600000000000000e+04
-8.792500000000000000e+04
-8.519700000000000000e+04
-9.064400000000000000e+04
-9.820100000000000000e+04
-9.380400000000000000e+04
-8.048300000000000000e+04
-7.789800000000000000e+04
-8.334600000000000000e+04
-9.674700000000000000e+04
-9.580600000000000000e+04
-8.114900000000000000e+04
-6.953900000000000000e+04
-9.040900000000000000e+04
-1.037890000000000000e+05
-9.334100000000000000e+04
-8.143600000000000000e+04
-8.470200000000000000e+04
-9.288000000000000000e+04
-9.467900000000000000e+04
-9.100800000000000000e+04
-8.715100000000000000e+04
-8.048100000000000000e+04
-8.068600000000000000e+04
-9.123700000000000000e+04
-9.681400000000000000e+04
-8.948800000000000000e+04
-8.565300000000000000e+04
-8.925100000000000000e+04
-9.515400000000000000e+04
-9.329800000000000000e+04
-8.382700000000000000e+04
-7.232900000000000000e+04
-7.711300000000000000e+04
-9.854200000000000000e+04
-9.859300000000000000e+04
-8.755500000000000000e+04
-8.463600000000000000e+04
-8.762300000000000000e+04
-9.519700000000000000e+04
-9.586500000000000000e+04
-8.748200000000000000e+04
-7.975900000000000000e+04
-8.352300000000000000e+04
-8.978200000000000000e+04
-8.754900000000000000e+04
-8.657700000000000000e+04
-8.198100000000000000e+04
-9.389200000000000000e+04
-9.866900000000000000e+04
-9.252600000000000000e+04
-8.190000000000000000e+04
-7.742700000000000000e+04
-9.323400000000000000e+04
-9.556400000000000000e+04
-8.554400000000000000e+04
-8.335400000000000000e+04
-8.828000000000000000e+04
-9.067100000000000000e+04
-9.073100000000000000e+04
-8.847900000000000000e+04
-8.861100000000000000e+04
-8.657900000000000000e+04
-8.814200000000000000e+04
-9.027500000000000000e+04
-8.999500000000000000e+04
-8.527600000000000000e+04
-8.092700000000000000e+04
-9.279400000000000000e+04
-9.870900000000000000e+04
-8.953800000000000000e+04
-7.885700000000000000e+04
-7.751700000000000000e+04
-8.732700000000000000e+04
-9.881800000000000000e+04
-9.683100000000000000e+04
-8.194400000000000000e+04
-7.880700000000000000e+04
-8.655700000000000000e+04
-9.728000000000000000e+04
-9.914100000000000000e+04
-8.934900000000000000e+04
-8.024400000000000000e+04
-8.176900000000000000e+04
-9.279600000000000000e+04
-8.947600000000000000e+04
-8.456900000000000000e+04
-8.688400000000000000e+04
-9.178200000000000000e+04
-8.497200000000000000e+04
-9.317700000000000000e+04
-8.716600000000000000e+04
-8.130500000000000000e+04
-9.231100000000000000e+04
-9.055200000000000000e+04
-8.927400000000000000e+04
-8.243500000000000000e+04
-8.261300000000000000e+04
-9.189600000000000000e+04
-9.263400000000000000e+04
-9.046200000000000000e+04
-8.157400000000000000e+04
-8.413200000000000000e+04
-9.201500000000000000e+04
-9.291200000000000000e+04
-9.421400000000000000e+04
-8.652100000000000000e+04
-8.130900000000000000e+04
-8.607100000000000000e+04
-9.284100000000000000e+04
-8.978300000000000000e+04
-8.835700000000000000e+04
-8.739100000000000000e+04
-8.891900000000000000e+04
-8.966600000000000000e+04
-9.056900000000000000e+04
-9.014600000000000000e+04
-8.623200000000000000e+04
-8.405100000000000000e+04
-8.913800000000000000e+04
-9.105200000000000000e+04
-8.305100000000000000e+04
-8.254100000000000000e+04
-8.753900000000000000e+04
-9.575200000000000000e+04
-9.900700000000000000e+04
-8.497100000000000000e+04
-7.354200000000000000e+04
