-7.599600000000000000e+04
-8.127500000000000000e+04
-8.654400000000000000e+04
-8.558700000000000000e+04
-7.938200000000000000e+04
-7.589900000000000000e+04
-8.116500000000000000e+04
-8.650400000000000000e+04
-8.556400000000000000e+04
-7.942500000000000000e+04
-7.585200000000000000e+04
-8.103300000000000000e+04
-8.652300000000000000e+04
-8.571100000000000000e+04
-7.970700000000000000e+04
-7.590500000000000000e+04
-8.096400000000000000e+04
-8.651000000000000000e+04
-8.588600000000000000e+04
-7.983600000000000000e+04
-7.592200000000000000e+04
-8.092200000000000000e+04
-8.650300000000000000e+04
-8.589200000000000000e+04
-7.981700000000000000e+04
-7.576600000000000000e+04
-8.072600000000000000e+04
-8.652600000000000000e+04
-8.592700000000000000e+04
-7.976200000000000000e+04
-7.568100000000000000e+04
-8.066200000000000000e+04
-8.632400000000000000e+04
-8.583700000000000000e+04
-7.976300000000000000e+04
-7.560200000000000000e+04
-8.044400000000000000e+04
-8.621600000000000000e+04
-8.593100000000000000e+04
-7.995000000000000000e+04
-7.567100000000000000e+04
-8.040800000000000000e+04
-8.623900000000000000e+04
-8.604700000000000000e+04
-8.005900000000000000e+04
-7.563100000000000000e+04
-8.037100000000000000e+04
-8.618700000000000000e+04
-8.608100000000000000e+04
-8.025900000000000000e+04
-7.559600000000000000e+04
-8.006100000000000000e+04
-8.605700000000000000e+04
-8.609900000000000000e+04
-8.045500000000000000e+04
-7.574300000000000000e+04
-8.005900000000000000e+04
-8.596400000000000000e+04
-8.618100000000000000e+04
-8.054000000000000000e+04
-7.580100000000000000e+04
-8.019900000000000000e+04
-8.629000000000000000e+04
-8.632200000000000000e+04
-8.057100000000000000e+04
-7.570600000000000000e+04
-7.989600000000000000e+04
-8.600900000000000000e+04
-8.620400000000000000e+04
-8.055400000000000000e+04
-7.563700000000000000e+04
-7.973100000000000000e+04
-8.587600000000000000e+04
-8.630100000000000000e+04
-8.078600000000000000e+04
-7.566200000000000000e+04
-7.956200000000000000e+04
-8.579400000000000000e+04
-8.635200000000000000e+04
-8.085300000000000000e+04
-7.571000000000000000e+04
-7.956200000000000000e+04
-8.576100000000000000e+04
-8.635900000000000000e+04
-8.093100000000000000e+04
-7.562900000000000000e+04
-7.934100000000000000e+04
-8.564200000000000000e+04
-8.661700000000000000e+04
-8.140200000000000000e+04
-7.608900000000000000e+04
-7.988100000000000000e+04
-8.627900000000000000e+04
-8.714200000000000000e+04
-8.150900000000000000e+04
-7.565700000000000000e+04
-7.857200000000000000e+04
-8.466500000000000000e+04
-8.566600000000000000e+04
-8.063900000000000000e+04
-7.532400000000000000e+04
-7.875400000000000000e+04
-8.529200000000000000e+04
-8.649500000000000000e+04
-8.141400000000000000e+04
-7.580200000000000000e+04
-7.891900000000000000e+04
-8.530900000000000000e+04
-8.658700000000000000e+04
-8.149600000000000000e+04
-7.572400000000000000e+04
-7.867600000000000000e+04
-8.524900000000000000e+04
-8.658500000000000000e+04
-8.156800000000000000e+04
-7.562700000000000000e+04
-7.858900000000000000e+04
-8.514700000000000000e+04
-8.650400000000000000e+04
-8.153500000000000000e+04
-7.569400000000000000e+04
-7.843700000000000000e+04
-8.500200000000000000e+04
-8.650900000000000000e+04
-8.157400000000000000e+04
-7.555500000000000000e+04
-7.822100000000000000e+04
-8.487300000000000000e+04
-8.649300000000000000e+04
-8.166900000000000000e+04
-7.565100000000000000e+04
-7.819800000000000000e+04
-8.480600000000000000e+04
-8.656600000000000000e+04
-8.178300000000000000e+04
-7.569000000000000000e+04
-7.798900000000000000e+04
-8.448500000000000000e+04
-8.633700000000000000e+04
-8.180400000000000000e+04
-7.565700000000000000e+04
-7.788200000000000000e+04
-8.454800000000000000e+04
-8.649000000000000000e+04
-8.192600000000000000e+04
-7.565600000000000000e+04
-7.785400000000000000e+04
-8.453800000000000000e+04
-8.651200000000000000e+04
-8.200100000000000000e+04
-7.563300000000000000e+04
-7.749900000000000000e+04
-8.425100000000000000e+04
-8.649000000000000000e+04
-8.221800000000000000e+04
-7.582900000000000000e+04
-7.750900000000000000e+04
-8.421400000000000000e+04
-8.646600000000000000e+04
-8.204900000000000000e+04
-7.577200000000000000e+04
-7.747700000000000000e+04
-8.411700000000000000e+04
-8.638400000000000000e+04
-8.218300000000000000e+04
-7.582600000000000000e+04
-7.739300000000000000e+04
-8.399200000000000000e+04
-8.650300000000000000e+04
-8.240600000000000000e+04
-7.589900000000000000e+04
-7.721200000000000000e+04
-8.397100000000000000e+04
-8.649400000000000000e+04
-8.241700000000000000e+04
-7.593300000000000000e+04
-7.708500000000000000e+04
-8.381800000000000000e+04
-8.654900000000000000e+04
-8.245400000000000000e+04
-7.609300000000000000e+04
-7.714900000000000000e+04
-8.375800000000000000e+04
-8.649400000000000000e+04
-8.260200000000000000e+04
-7.606100000000000000e+04
-7.692200000000000000e+04
-8.358100000000000000e+04
-8.655600000000000000e+04
-8.280600000000000000e+04
-7.620700000000000000e+04
-7.677300000000000000e+04
-8.353000000000000000e+04
-8.654800000000000000e+04
-8.270100000000000000e+04
-7.618700000000000000e+04
-7.679700000000000000e+04
-8.341900000000000000e+04
-8.637200000000000000e+04
-8.262300000000000000e+04
-7.613000000000000000e+04
-7.654400000000000000e+04
-8.323600000000000000e+04
-8.641700000000000000e+04
-8.284000000000000000e+04
-7.630600000000000000e+04
-7.650000000000000000e+04
-8.317000000000000000e+04
-8.642200000000000000e+04
-8.289400000000000000e+04
-7.630900000000000000e+04
-7.638100000000000000e+04
-8.296800000000000000e+04
-8.632300000000000000e+04
-8.294600000000000000e+04
-7.628200000000000000e+04
-7.622800000000000000e+04
-8.282200000000000000e+04
-8.625700000000000000e+04
-8.300100000000000000e+04
-7.639600000000000000e+04
-7.622500000000000000e+04
-8.283000000000000000e+04
-8.636400000000000000e+04
-8.314700000000000000e+04
-7.644100000000000000e+04
-7.610300000000000000e+04
-8.272900000000000000e+04
-8.630800000000000000e+04
-8.315400000000000000e+04
-7.634900000000000000e+04
-7.571600000000000000e+04
-8.241400000000000000e+04
-8.622300000000000000e+04
-8.319700000000000000e+04
-7.649900000000000000e+04
-7.577500000000000000e+04
-8.234600000000000000e+04
-8.626800000000000000e+04
-8.323200000000000000e+04
-7.663100000000000000e+04
-7.579300000000000000e+04
-8.232600000000000000e+04
-8.620600000000000000e+04
-8.330200000000000000e+04
-7.670200000000000000e+04
-7.572700000000000000e+04
-8.216500000000000000e+04
-8.613200000000000000e+04
-8.343600000000000000e+04
-7.700900000000000000e+04
-7.599900000000000000e+04
-8.254200000000000000e+04
-8.692900000000000000e+04
-8.430400000000000000e+04
-7.739400000000000000e+04
5.216000000000000000e+03
3.842000000000000000e+03
7.162000000000000000e+03
1.145800000000000000e+04
9.994000000000000000e+03
5.243000000000000000e+03
3.764000000000000000e+03
7.034000000000000000e+03
1.131200000000000000e+04
9.996000000000000000e+03
5.244000000000000000e+03
3.709000000000000000e+03
6.866000000000000000e+03
1.123300000000000000e+04
9.941000000000000000e+03
5.111000000000000000e+03
3.493000000000000000e+03
6.707000000000000000e+03
1.118700000000000000e+04
9.967000000000000000e+03
5.096000000000000000e+03
3.411000000000000000e+03
6.624000000000000000e+03
1.117600000000000000e+04
1.000700000000000000e+04
5.125000000000000000e+03
3.411000000000000000e+03
6.446000000000000000e+03
1.098100000000000000e+04
9.896000000000000000e+03
4.897000000000000000e+03
3.091000000000000000e+03
6.163000000000000000e+03
1.079000000000000000e+04
9.733000000000000000e+03
4.794000000000000000e+03
3.028000000000000000e+03
6.028000000000000000e+03
1.081600000000000000e+04
9.893000000000000000e+03
4.899000000000000000e+03
2.999000000000000000e+03
5.933000000000000000e+03
1.081200000000000000e+04
1.001600000000000000e+04
4.961000000000000000e+03
3.048000000000000000e+03
5.920000000000000000e+03
1.071100000000000000e+04
1.003900000000000000e+04
5.150000000000000000e+03
3.121000000000000000e+03
5.791000000000000000e+03
1.049100000000000000e+04
9.963000000000000000e+03
5.067000000000000000e+03
2.884000000000000000e+03
5.563000000000000000e+03
1.027200000000000000e+04
9.783000000000000000e+03
4.941000000000000000e+03
2.817000000000000000e+03
5.467000000000000000e+03
1.009400000000000000e+04
9.735000000000000000e+03
4.866000000000000000e+03
2.657000000000000000e+03
5.294000000000000000e+03
1.001800000000000000e+04
9.789000000000000000e+03
4.970000000000000000e+03
2.743000000000000000e+03
5.253000000000000000e+03
9.948000000000000000e+03
9.936000000000000000e+03
5.204000000000000000e+03
2.841000000000000000e+03
5.314000000000000000e+03
9.959000000000000000e+03
9.871000000000000000e+03
5.197000000000000000e+03
2.779000000000000000e+03
5.074000000000000000e+03
9.704000000000000000e+03
9.623000000000000000e+03
4.919000000000000000e+03
2.513000000000000000e+03
4.889000000000000000e+03
9.671000000000000000e+03
9.843000000000000000e+03
5.139000000000000000e+03
2.654000000000000000e+03
4.924000000000000000e+03
9.504000000000000000e+03
9.803000000000000000e+03
5.126000000000000000e+03
2.445000000000000000e+03
4.801000000000000000e+03
9.533000000000000000e+03
9.829000000000000000e+03
5.214000000000000000e+03
2.626000000000000000e+03
4.834000000000000000e+03
9.453000000000000000e+03
9.844000000000000000e+03
5.208000000000000000e+03
2.563000000000000000e+03
4.609000000000000000e+03
9.234000000000000000e+03
9.855000000000000000e+03
5.353000000000000000e+03
2.693000000000000000e+03
4.678000000000000000e+03
9.325000000000000000e+03
1.000000000000000000e+04
5.373000000000000000e+03
2.651000000000000000e+03
4.648000000000000000e+03
9.280000000000000000e+03
1.001800000000000000e+04
5.508000000000000000e+03
2.688000000000000000e+03
4.591000000000000000e+03
9.167000000000000000e+03
9.941000000000000000e+03
5.477000000000000000e+03
2.743000000000000000e+03
4.684000000000000000e+03
9.277000000000000000e+03
1.010900000000000000e+04
5.636000000000000000e+03
2.775000000000000000e+03
4.605000000000000000e+03
9.094000000000000000e+03
9.984000000000000000e+03
5.600000000000000000e+03
2.731000000000000000e+03
4.552000000000000000e+03
9.086000000000000000e+03
1.002100000000000000e+04
5.591000000000000000e+03
2.603000000000000000e+03
4.317000000000000000e+03
8.775000000000000000e+03
9.741000000000000000e+03
5.357000000000000000e+03
2.449000000000000000e+03
4.414000000000000000e+03
9.200000000000000000e+03
1.062400000000000000e+04
6.403000000000000000e+03
3.235000000000000000e+03
4.648000000000000000e+03
8.933000000000000000e+03
1.007600000000000000e+04
5.679000000000000000e+03
2.574000000000000000e+03
4.114000000000000000e+03
8.555000000000000000e+03
9.873000000000000000e+03
5.689000000000000000e+03
2.514000000000000000e+03
4.018000000000000000e+03
8.529000000000000000e+03
9.970000000000000000e+03
5.809000000000000000e+03
2.626000000000000000e+03
3.968000000000000000e+03
8.421000000000000000e+03
9.975000000000000000e+03
5.818000000000000000e+03
2.601000000000000000e+03
3.913000000000000000e+03
8.301000000000000000e+03
9.937000000000000000e+03
5.883000000000000000e+03
2.632000000000000000e+03
3.983000000000000000e+03
8.403000000000000000e+03
1.003800000000000000e+04
5.914000000000000000e+03
2.693000000000000000e+03
3.918000000000000000e+03
8.223000000000000000e+03
1.006600000000000000e+04
6.064000000000000000e+03
2.731000000000000000e+03
3.893000000000000000e+03
8.224000000000000000e+03
1.000500000000000000e+04
5.973000000000000000e+03
2.562000000000000000e+03
3.648000000000000000e+03
8.068000000000000000e+03
1.000000000000000000e+04
5.989000000000000000e+03
2.668000000000000000e+03
3.736000000000000000e+03
8.036000000000000000e+03
1.005200000000000000e+04
6.124000000000000000e+03
2.693000000000000000e+03
3.666000000000000000e+03
7.924000000000000000e+03
1.003100000000000000e+04
6.196000000000000000e+03
2.686000000000000000e+03
3.597000000000000000e+03
7.899000000000000000e+03
9.960000000000000000e+03
6.141000000000000000e+03
2.596000000000000000e+03
3.426000000000000000e+03
7.647000000000000000e+03
9.845000000000000000e+03
6.127000000000000000e+03
2.559000000000000000e+03
3.344000000000000000e+03
7.601000000000000000e+03
9.972000000000000000e+03
6.122000000000000000e+03
2.466000000000000000e+03
3.245000000000000000e+03
7.514000000000000000e+03
9.858000000000000000e+03
6.178000000000000000e+03
2.515000000000000000e+03
3.317000000000000000e+03
7.558000000000000000e+03
9.977000000000000000e+03
6.294000000000000000e+03
2.521000000000000000e+03
3.095000000000000000e+03
7.268000000000000000e+03
9.908000000000000000e+03
6.458000000000000000e+03
2.645000000000000000e+03
3.108000000000000000e+03
7.331000000000000000e+03
9.993000000000000000e+03
6.534000000000000000e+03
2.661000000000000000e+03
3.073000000000000000e+03
7.325000000000000000e+03
1.005400000000000000e+04
6.585000000000000000e+03
2.740000000000000000e+03
3.127000000000000000e+03
7.196000000000000000e+03
1.001100000000000000e+04
6.689000000000000000e+03
2.781000000000000000e+03
3.089000000000000000e+03
7.107000000000000000e+03
9.991000000000000000e+03
6.708000000000000000e+03
2.748000000000000000e+03
2.986000000000000000e+03
7.081000000000000000e+03
1.007800000000000000e+04
6.776000000000000000e+03
2.765000000000000000e+03
2.993000000000000000e+03
7.026000000000000000e+03
9.874000000000000000e+03
6.722000000000000000e+03
2.690000000000000000e+03
2.809000000000000000e+03
6.814000000000000000e+03
9.881000000000000000e+03
6.665000000000000000e+03
2.539000000000000000e+03
2.639000000000000000e+03
6.661000000000000000e+03
9.836000000000000000e+03
6.778000000000000000e+03
2.682000000000000000e+03
2.773000000000000000e+03
6.833000000000000000e+03
1.007800000000000000e+04
7.071000000000000000e+03
2.941000000000000000e+03
2.827000000000000000e+03
6.764000000000000000e+03
1.005800000000000000e+04
7.114000000000000000e+03
2.924000000000000000e+03
2.801000000000000000e+03
6.684000000000000000e+03
9.991000000000000000e+03
7.123000000000000000e+03
2.841000000000000000e+03
2.634000000000000000e+03
6.529000000000000000e+03
1.000400000000000000e+04
7.111000000000000000e+03
2.903000000000000000e+03
2.718000000000000000e+03
6.624000000000000000e+03
1.007100000000000000e+04
7.276000000000000000e+03
2.927000000000000000e+03
2.656000000000000000e+03
6.558000000000000000e+03
1.005600000000000000e+04
7.216000000000000000e+03
2.788000000000000000e+03
2.339000000000000000e+03
6.073000000000000000e+03
9.664000000000000000e+03
7.070000000000000000e+03
2.747000000000000000e+03
2.526000000000000000e+03
6.665000000000000000e+03
1.057600000000000000e+04
7.959000000000000000e+03
3.393000000000000000e+03
2.795000000000000000e+03
6.426000000000000000e+03
1.003900000000000000e+04
7.617000000000000000e+03
3.135000000000000000e+03
2.454000000000000000e+03
6.174000000000000000e+03
9.918000000000000000e+03
7.554000000000000000e+03
3.106000000000000000e+03
2.411000000000000000e+03
6.026000000000000000e+03
9.776000000000000000e+03
7.521000000000000000e+03
3.148000000000000000e+03
2.514000000000000000e+03
6.176000000000000000e+03
9.984000000000000000e+03
7.733000000000000000e+03
3.183000000000000000e+03
2.462000000000000000e+03
6.130000000000000000e+03
1.003900000000000000e+04
7.884000000000000000e+03
3.393000000000000000e+03
2.585000000000000000e+03
6.153000000000000000e+03
1.014400000000000000e+04
8.068000000000000000e+03
3.508000000000000000e+03
2.680000000000000000e+03
6.113000000000000000e+03
1.005900000000000000e+04
8.006000000000000000e+03
3.466000000000000000e+03
2.613000000000000000e+03
6.084000000000000000e+03
1.007300000000000000e+04
8.034000000000000000e+03
3.517000000000000000e+03
2.537000000000000000e+03
5.955000000000000000e+03
1.004300000000000000e+04
8.138000000000000000e+03
3.493000000000000000e+03
2.374000000000000000e+03
5.719000000000000000e+03
9.761000000000000000e+03
7.976000000000000000e+03
3.346000000000000000e+03
2.271000000000000000e+03
5.649000000000000000e+03
9.822000000000000000e+03
8.097000000000000000e+03
3.518000000000000000e+03
2.354000000000000000e+03
5.599000000000000000e+03
9.748000000000000000e+03
8.123000000000000000e+03
3.535000000000000000e+03
2.306000000000000000e+03
5.601000000000000000e+03
9.774000000000000000e+03
8.250000000000000000e+03
3.668000000000000000e+03
2.383000000000000000e+03
5.621000000000000000e+03
9.849000000000000000e+03
8.438000000000000000e+03
3.719000000000000000e+03
2.353000000000000000e+03
5.517000000000000000e+03
9.813000000000000000e+03
8.571000000000000000e+03
3.944000000000000000e+03
2.494000000000000000e+03
5.596000000000000000e+03
9.857000000000000000e+03
8.578000000000000000e+03
3.907000000000000000e+03
2.399000000000000000e+03
5.401000000000000000e+03
9.706000000000000000e+03
8.556000000000000000e+03
3.916000000000000000e+03
2.359000000000000000e+03
5.376000000000000000e+03
9.703000000000000000e+03
8.545000000000000000e+03
3.900000000000000000e+03
2.355000000000000000e+03
5.369000000000000000e+03
9.727000000000000000e+03
8.786000000000000000e+03
4.071000000000000000e+03
2.385000000000000000e+03
5.373000000000000000e+03
9.792000000000000000e+03
8.908000000000000000e+03
4.276000000000000000e+03
2.491000000000000000e+03
5.359000000000000000e+03
9.803000000000000000e+03
8.914000000000000000e+03
4.211000000000000000e+03
2.438000000000000000e+03
5.223000000000000000e+03
9.555000000000000000e+03
8.784000000000000000e+03
4.141000000000000000e+03
2.291000000000000000e+03
5.082000000000000000e+03
9.562000000000000000e+03
8.919000000000000000e+03
4.293000000000000000e+03
2.465000000000000000e+03
5.216000000000000000e+03
9.701000000000000000e+03
9.159000000000000000e+03
4.533000000000000000e+03
2.619000000000000000e+03
5.302000000000000000e+03
9.701000000000000000e+03
9.227000000000000000e+03
4.576000000000000000e+03
2.494000000000000000e+03
5.197000000000000000e+03
9.761000000000000000e+03
9.359000000000000000e+03
4.638000000000000000e+03
2.522000000000000000e+03
5.146000000000000000e+03
9.703000000000000000e+03
9.418000000000000000e+03
4.806000000000000000e+03
2.671000000000000000e+03
5.162000000000000000e+03
9.663000000000000000e+03
9.481000000000000000e+03
4.838000000000000000e+03
2.620000000000000000e+03
5.153000000000000000e+03
9.726000000000000000e+03
9.537000000000000000e+03
4.854000000000000000e+03
2.628000000000000000e+03
4.999000000000000000e+03
9.494000000000000000e+03
9.434000000000000000e+03
4.918000000000000000e+03
2.591000000000000000e+03
4.936000000000000000e+03
9.383000000000000000e+03
9.315000000000000000e+03
4.596000000000000000e+03
2.123000000000000000e+03
4.368000000000000000e+03
8.954000000000000000e+03
9.169000000000000000e+03
4.753000000000000000e+03
2.730000000000000000e+03
5.375000000000000000e+03
1.001400000000000000e+04
1.013900000000000000e+04
5.383000000000000000e+03
2.811000000000000000e+03
4.891000000000000000e+03
9.350000000000000000e+03
9.627000000000000000e+03
5.092000000000000000e+03
2.594000000000000000e+03
4.755000000000000000e+03
9.310000000000000000e+03
9.725000000000000000e+03
5.136000000000000000e+03
2.490000000000000000e+03
4.568000000000000000e+03
9.177000000000000000e+03
9.738000000000000000e+03
5.226000000000000000e+03
2.581000000000000000e+03
4.585000000000000000e+03
9.161000000000000000e+03
9.852000000000000000e+03
5.389000000000000000e+03
2.638000000000000000e+03
4.578000000000000000e+03
9.168000000000000000e+03
9.915000000000000000e+03
5.483000000000000000e+03
2.684000000000000000e+03
4.610000000000000000e+03
9.148000000000000000e+03
9.986000000000000000e+03
5.538000000000000000e+03
2.703000000000000000e+03
4.578000000000000000e+03
9.120000000000000000e+03
1.006700000000000000e+04
5.677000000000000000e+03
2.779000000000000000e+03
4.528000000000000000e+03
9.071000000000000000e+03
1.006900000000000000e+04
5.594000000000000000e+03
2.684000000000000000e+03
4.378000000000000000e+03
8.936000000000000000e+03
9.988000000000000000e+03
5.606000000000000000e+03
2.618000000000000000e+03
4.321000000000000000e+03
8.844000000000000000e+03
1.000600000000000000e+04
5.716000000000000000e+03
2.700000000000000000e+03
4.277000000000000000e+03
8.751000000000000000e+03
9.981000000000000000e+03
5.666000000000000000e+03
2.651000000000000000e+03
4.267000000000000000e+03
8.739000000000000000e+03
1.002100000000000000e+04
5.849000000000000000e+03
2.719000000000000000e+03
4.166000000000000000e+03
8.671000000000000000e+03
1.007200000000000000e+04
5.841000000000000000e+03
2.677000000000000000e+03
4.139000000000000000e+03
8.719000000000000000e+03
1.028600000000000000e+04
6.064000000000000000e+03
2.841000000000000000e+03
4.202000000000000000e+03
8.658000000000000000e+03
1.019700000000000000e+04
5.977000000000000000e+03
2.679000000000000000e+03
3.927000000000000000e+03
8.438000000000000000e+03
1.011400000000000000e+04
6.014000000000000000e+03
2.845000000000000000e+03
4.139000000000000000e+03
8.578000000000000000e+03
1.022100000000000000e+04
5.931000000000000000e+03
2.710000000000000000e+03
4.026000000000000000e+03
8.454000000000000000e+03
1.024800000000000000e+04
6.268000000000000000e+03
2.879000000000000000e+03
4.053000000000000000e+03
8.517000000000000000e+03
1.039600000000000000e+04
6.303000000000000000e+03
2.895000000000000000e+03
4.027000000000000000e+03
8.477000000000000000e+03
1.043400000000000000e+04
6.375000000000000000e+03
2.964000000000000000e+03
4.036000000000000000e+03
8.445000000000000000e+03
1.042600000000000000e+04
6.421000000000000000e+03
2.916000000000000000e+03
3.955000000000000000e+03
8.363000000000000000e+03
1.040800000000000000e+04
6.414000000000000000e+03
2.881000000000000000e+03
3.979000000000000000e+03
8.411000000000000000e+03
1.058000000000000000e+04
6.673000000000000000e+03
3.044000000000000000e+03
3.961000000000000000e+03
8.259000000000000000e+03
1.041900000000000000e+04
6.526000000000000000e+03
2.868000000000000000e+03
3.718000000000000000e+03
8.068000000000000000e+03
1.042000000000000000e+04
6.781000000000000000e+03
3.118000000000000000e+03
3.764000000000000000e+03
8.036000000000000000e+03
1.043800000000000000e+04
6.679000000000000000e+03
3.014000000000000000e+03
3.682000000000000000e+03
7.871000000000000000e+03
1.040800000000000000e+04
6.815000000000000000e+03
2.979000000000000000e+03
3.568000000000000000e+03
7.843000000000000000e+03
1.045400000000000000e+04
6.826000000000000000e+03
3.015000000000000000e+03
3.567000000000000000e+03
7.758000000000000000e+03
1.039000000000000000e+04
6.972000000000000000e+03
3.172000000000000000e+03
3.612000000000000000e+03
7.716000000000000000e+03
1.045100000000000000e+04
7.046000000000000000e+03
3.220000000000000000e+03
3.645000000000000000e+03
7.765000000000000000e+03
1.035900000000000000e+04
6.793000000000000000e+03
2.758000000000000000e+03
3.076000000000000000e+03
7.116000000000000000e+03
9.774000000000000000e+03
6.452000000000000000e+03
2.771000000000000000e+03
3.440000000000000000e+03
7.819000000000000000e+03
1.072300000000000000e+04
7.243000000000000000e+03
3.098000000000000000e+03
3.260000000000000000e+03
7.214000000000000000e+03
1.008400000000000000e+04
6.791000000000000000e+03
2.849000000000000000e+03
3.066000000000000000e+03
6.995000000000000000e+03
9.950000000000000000e+03
6.800000000000000000e+03
2.787000000000000000e+03
2.934000000000000000e+03
6.909000000000000000e+03
9.977000000000000000e+03
6.889000000000000000e+03
2.866000000000000000e+03
2.941000000000000000e+03
6.872000000000000000e+03
9.995000000000000000e+03
6.961000000000000000e+03
3.005000000000000000e+03
3.048000000000000000e+03
6.844000000000000000e+03
1.005700000000000000e+04
7.057000000000000000e+03
3.074000000000000000e+03
3.098000000000000000e+03
7.070000000000000000e+03
1.027100000000000000e+04
7.292000000000000000e+03
3.126000000000000000e+03
2.966000000000000000e+03
6.845000000000000000e+03
1.019800000000000000e+04
7.337000000000000000e+03
3.210000000000000000e+03
3.029000000000000000e+03
6.811000000000000000e+03
1.013700000000000000e+04
7.356000000000000000e+03
3.119000000000000000e+03
2.913000000000000000e+03
6.717000000000000000e+03
1.006800000000000000e+04
7.305000000000000000e+03
3.117000000000000000e+03
2.828000000000000000e+03
6.557000000000000000e+03
1.000300000000000000e+04
7.435000000000000000e+03
3.173000000000000000e+03
2.768000000000000000e+03
6.506000000000000000e+03
1.001400000000000000e+04
7.459000000000000000e+03
3.251000000000000000e+03
2.847000000000000000e+03
6.631000000000000000e+03
1.052300000000000000e+04
8.056000000000000000e+03
3.419000000000000000e+03
2.665000000000000000e+03
6.323000000000000000e+03
1.004100000000000000e+04
7.634000000000000000e+03
3.240000000000000000e+03
2.736000000000000000e+03
6.349000000000000000e+03
9.831000000000000000e+03
7.656000000000000000e+03
3.556000000000000000e+03
3.269000000000000000e+03
6.547000000000000000e+03
9.976000000000000000e+03
7.828000000000000000e+03
3.337000000000000000e+03
2.741000000000000000e+03
6.407000000000000000e+03
1.006400000000000000e+04
8.374000000000000000e+03
3.766000000000000000e+03
2.963000000000000000e+03
6.547000000000000000e+03
1.017300000000000000e+04
7.788000000000000000e+03
3.297000000000000000e+03
2.604000000000000000e+03
6.121000000000000000e+03
9.928000000000000000e+03
7.779000000000000000e+03
3.470000000000000000e+03
2.658000000000000000e+03
6.251000000000000000e+03
1.042900000000000000e+04
8.846000000000000000e+03
4.236000000000000000e+03
2.696000000000000000e+03
6.085000000000000000e+03
1.023900000000000000e+04
8.981000000000000000e+03
4.521000000000000000e+03
3.893000000000000000e+03
7.496000000000000000e+03
1.128500000000000000e+04
8.416000000000000000e+03
3.715000000000000000e+03
4.285000000000000000e+03
7.845000000000000000e+03
1.049400000000000000e+04
7.492000000000000000e+03
2.664000000000000000e+03
1.834000000000000000e+03
5.509000000000000000e+03
9.679000000000000000e+03
8.010000000000000000e+03
3.256000000000000000e+03
2.292000000000000000e+03
6.098000000000000000e+03
9.746000000000000000e+03
8.455000000000000000e+03
4.097000000000000000e+03
3.023000000000000000e+03
6.328000000000000000e+03
1.014200000000000000e+04
8.322000000000000000e+03
3.589000000000000000e+03
1.909000000000000000e+03
5.133000000000000000e+03
9.600000000000000000e+03
8.532000000000000000e+03
4.341000000000000000e+03
2.860000000000000000e+03
5.349000000000000000e+03
9.592000000000000000e+03
9.324000000000000000e+03
4.113000000000000000e+03
3.121000000000000000e+03
6.904000000000000000e+03
1.141300000000000000e+04
9.423000000000000000e+03
5.011000000000000000e+03
2.969000000000000000e+03
5.875000000000000000e+03
9.799000000000000000e+03
9.208000000000000000e+03
5.606000000000000000e+03
4.205000000000000000e+03
6.586000000000000000e+03
1.023300000000000000e+04
9.494000000000000000e+03
7.271000000000000000e+03
6.891000000000000000e+03
8.656000000000000000e+03
1.015600000000000000e+04
8.277000000000000000e+03
3.687000000000000000e+03
2.674000000000000000e+03
7.415000000000000000e+03
1.325200000000000000e+04
1.214600000000000000e+04
6.639000000000000000e+03
5.412000000000000000e+03
9.859000000000000000e+03
1.934800000000000000e+04
2.460400000000000000e+04
1.921200000000000000e+04
1.220900000000000000e+04
1.429900000000000000e+04
2.268700000000000000e+04
2.368900000000000000e+04
1.782900000000000000e+04
1.001900000000000000e+04
5.639000000000000000e+03
8.774000000000000000e+03
1.016600000000000000e+04
8.171000000000000000e+03
1.157900000000000000e+04
1.753700000000000000e+04
1.921100000000000000e+04
1.256700000000000000e+04
8.318000000000000000e+03
1.195300000000000000e+04
1.572800000000000000e+04
1.429100000000000000e+04
1.333200000000000000e+04
1.232200000000000000e+04
1.204300000000000000e+04
1.734400000000000000e+04
2.178800000000000000e+04
1.895300000000000000e+04
1.096400000000000000e+04
5.699000000000000000e+03
8.151000000000000000e+03
1.515900000000000000e+04
1.912600000000000000e+04
1.607100000000000000e+04
1.268300000000000000e+04
1.308700000000000000e+04
1.718100000000000000e+04
1.932100000000000000e+04
1.772300000000000000e+04
9.966000000000000000e+03
1.068000000000000000e+04
2.113900000000000000e+04
2.373100000000000000e+04
2.035400000000000000e+04
1.975100000000000000e+04
1.396400000000000000e+04
1.147800000000000000e+04
1.580600000000000000e+04
1.548400000000000000e+04
1.568100000000000000e+04
1.465600000000000000e+04
1.837600000000000000e+04
2.663400000000000000e+04
2.383600000000000000e+04
1.661900000000000000e+04
1.751900000000000000e+04
2.555700000000000000e+04
3.283800000000000000e+04
2.334900000000000000e+04
1.934400000000000000e+04
2.584400000000000000e+04
2.425200000000000000e+04
2.386300000000000000e+04
2.642800000000000000e+04
2.346800000000000000e+04
1.948400000000000000e+04
2.149600000000000000e+04
2.285300000000000000e+04
2.510200000000000000e+04
2.112600000000000000e+04
2.084000000000000000e+04
2.409300000000000000e+04
2.943400000000000000e+04
2.149000000000000000e+04
1.750800000000000000e+04
1.291100000000000000e+04
1.560500000000000000e+04
2.934900000000000000e+04
1.894200000000000000e+04
6.457000000000000000e+03
8.676000000000000000e+03
1.050200000000000000e+04
1.338100000000000000e+04
8.556000000000000000e+03
5.295000000000000000e+03
1.223400000000000000e+04
2.073400000000000000e+04
1.556100000000000000e+04
8.179000000000000000e+03
3.630000000000000000e+03
5.179000000000000000e+03
8.108000000000000000e+03
8.385000000000000000e+03
6.303000000000000000e+03
8.084000000000000000e+03
1.377500000000000000e+04
1.857100000000000000e+04
1.748800000000000000e+04
1.227100000000000000e+04
9.624000000000000000e+03
1.168200000000000000e+04
1.644300000000000000e+04
1.683100000000000000e+04
1.226600000000000000e+04
9.746000000000000000e+03
1.158100000000000000e+04
1.601400000000000000e+04
1.703900000000000000e+04
1.162100000000000000e+04
8.281000000000000000e+03
1.071700000000000000e+04
1.772100000000000000e+04
1.895100000000000000e+04
1.153600000000000000e+04
7.509000000000000000e+03
1.042300000000000000e+04
1.602900000000000000e+04
1.660600000000000000e+04
1.146100000000000000e+04
9.608000000000000000e+03
1.275100000000000000e+04
1.495300000000000000e+04
1.474000000000000000e+04
1.156200000000000000e+04
8.603000000000000000e+03
9.560000000000000000e+03
1.414000000000000000e+04
1.568900000000000000e+04
1.161600000000000000e+04
8.419000000000000000e+03
9.958000000000000000e+03
1.457100000000000000e+04
1.620100000000000000e+04
1.185200000000000000e+04
8.285000000000000000e+03
9.733000000000000000e+03
1.438800000000000000e+04
1.580800000000000000e+04
1.142900000000000000e+04
8.061000000000000000e+03
9.461000000000000000e+03
1.409800000000000000e+04
1.564600000000000000e+04
1.123800000000000000e+04
7.666000000000000000e+03
9.006000000000000000e+03
1.351900000000000000e+04
1.513900000000000000e+04
1.055400000000000000e+04
7.094000000000000000e+03
8.566000000000000000e+03
1.313000000000000000e+04
1.491300000000000000e+04
1.055100000000000000e+04
6.850000000000000000e+03
8.065000000000000000e+03
1.254900000000000000e+04
1.426400000000000000e+04
9.890000000000000000e+03
6.236000000000000000e+03
7.264000000000000000e+03
1.165400000000000000e+04
1.357100000000000000e+04
9.590000000000000000e+03
6.242000000000000000e+03
7.626000000000000000e+03
1.233100000000000000e+04
1.427300000000000000e+04
9.920000000000000000e+03
5.994000000000000000e+03
6.819000000000000000e+03
1.124200000000000000e+04
1.339000000000000000e+04
9.248000000000000000e+03
5.469000000000000000e+03
6.466000000000000000e+03
1.101100000000000000e+04
1.308000000000000000e+04
8.979000000000000000e+03
5.460000000000000000e+03
6.498000000000000000e+03
1.090900000000000000e+04
1.311600000000000000e+04
9.053000000000000000e+03
5.201000000000000000e+03
6.078000000000000000e+03
1.065800000000000000e+04
1.297800000000000000e+04
9.055000000000000000e+03
5.396000000000000000e+03
6.202000000000000000e+03
1.040900000000000000e+04
1.260700000000000000e+04
8.703000000000000000e+03
4.461000000000000000e+03
5.133000000000000000e+03
1.006100000000000000e+04
1.277000000000000000e+04
8.910000000000000000e+03
5.007000000000000000e+03
5.558000000000000000e+03
1.001600000000000000e+04
1.275300000000000000e+04
8.874000000000000000e+03
4.929000000000000000e+03
5.701000000000000000e+03
1.007900000000000000e+04
1.242900000000000000e+04
8.573000000000000000e+03
4.575000000000000000e+03
5.059000000000000000e+03
9.373000000000000000e+03
1.208700000000000000e+04
8.725000000000000000e+03
4.591000000000000000e+03
4.853000000000000000e+03
9.253000000000000000e+03
1.194600000000000000e+04
8.504000000000000000e+03
4.798000000000000000e+03
5.156000000000000000e+03
9.348000000000000000e+03
1.193800000000000000e+04
8.296000000000000000e+03
4.381000000000000000e+03
4.628000000000000000e+03
8.850000000000000000e+03
1.185100000000000000e+04
8.356000000000000000e+03
4.336000000000000000e+03
4.463000000000000000e+03
8.789000000000000000e+03
1.192800000000000000e+04
8.802000000000000000e+03
4.960000000000000000e+03
4.338000000000000000e+03
8.136000000000000000e+03
1.135600000000000000e+04
8.105000000000000000e+03
3.960000000000000000e+03
3.820000000000000000e+03
8.087000000000000000e+03
1.128300000000000000e+04
7.791000000000000000e+03
3.589000000000000000e+03
3.712000000000000000e+03
7.833000000000000000e+03
1.109900000000000000e+04
7.894000000000000000e+03
3.843000000000000000e+03
4.025000000000000000e+03
7.974000000000000000e+03
1.120600000000000000e+04
8.224000000000000000e+03
4.004000000000000000e+03
3.753000000000000000e+03
7.836000000000000000e+03
1.116900000000000000e+04
8.186000000000000000e+03
3.873000000000000000e+03
3.813000000000000000e+03
7.949000000000000000e+03
1.130900000000000000e+04
8.202000000000000000e+03
3.873000000000000000e+03
3.604000000000000000e+03
7.487000000000000000e+03
1.106100000000000000e+04
8.256000000000000000e+03
3.856000000000000000e+03
3.531000000000000000e+03
7.486000000000000000e+03
1.113000000000000000e+04
8.326000000000000000e+03
3.783000000000000000e+03
3.275000000000000000e+03
7.154000000000000000e+03
1.095200000000000000e+04
8.163000000000000000e+03
3.794000000000000000e+03
3.665000000000000000e+03
7.500000000000000000e+03
1.112200000000000000e+04
8.559000000000000000e+03
4.055000000000000000e+03
3.664000000000000000e+03
7.475000000000000000e+03
1.108400000000000000e+04
8.514000000000000000e+03
4.099000000000000000e+03
3.653000000000000000e+03
7.364000000000000000e+03
1.122400000000000000e+04
8.569000000000000000e+03
3.961000000000000000e+03
3.526000000000000000e+03
7.222000000000000000e+03
1.074800000000000000e+04
8.264000000000000000e+03
3.942000000000000000e+03
3.469000000000000000e+03
7.229000000000000000e+03
1.094100000000000000e+04
8.463000000000000000e+03
4.075000000000000000e+03
3.356000000000000000e+03
7.128000000000000000e+03
1.090500000000000000e+04
8.654000000000000000e+03
4.111000000000000000e+03
3.516000000000000000e+03
7.242000000000000000e+03
1.113300000000000000e+04
8.865000000000000000e+03
4.339000000000000000e+03
3.608000000000000000e+03
7.101000000000000000e+03
1.091700000000000000e+04
8.814000000000000000e+03
4.558000000000000000e+03
3.809000000000000000e+03
7.053000000000000000e+03
1.081300000000000000e+04
8.671000000000000000e+03
4.096000000000000000e+03
2.994000000000000000e+03
6.441000000000000000e+03
1.061600000000000000e+04
8.854000000000000000e+03
4.538000000000000000e+03
3.829000000000000000e+03
7.279000000000000000e+03
1.112200000000000000e+04
9.113000000000000000e+03
4.597000000000000000e+03
3.475000000000000000e+03
6.799000000000000000e+03
1.090100000000000000e+04
9.099000000000000000e+03
4.586000000000000000e+03
3.544000000000000000e+03
6.874000000000000000e+03
1.099800000000000000e+04
9.391000000000000000e+03
4.774000000000000000e+03
3.556000000000000000e+03
6.851000000000000000e+03
1.112300000000000000e+04
9.376000000000000000e+03
4.464000000000000000e+03
3.210000000000000000e+03
6.637000000000000000e+03
1.089800000000000000e+04
9.529000000000000000e+03
4.663000000000000000e+03
3.308000000000000000e+03
6.738000000000000000e+03
1.100400000000000000e+04
9.465000000000000000e+03
4.699000000000000000e+03
3.146000000000000000e+03
6.279000000000000000e+03
1.078600000000000000e+04
9.609000000000000000e+03
4.738000000000000000e+03
3.173000000000000000e+03
6.310000000000000000e+03
1.069600000000000000e+04
9.479000000000000000e+03
4.749000000000000000e+03
3.192000000000000000e+03
6.248000000000000000e+03
1.068300000000000000e+04
9.568000000000000000e+03
4.819000000000000000e+03
3.149000000000000000e+03
6.178000000000000000e+03
1.076900000000000000e+04
9.631000000000000000e+03
4.772000000000000000e+03
3.074000000000000000e+03
6.109000000000000000e+03
1.054600000000000000e+04
9.452000000000000000e+03
4.731000000000000000e+03
2.986000000000000000e+03
5.798000000000000000e+03
1.039600000000000000e+04
9.473000000000000000e+03
4.609000000000000000e+03
2.879000000000000000e+03
5.560000000000000000e+03
1.008600000000000000e+04
9.501000000000000000e+03
4.659000000000000000e+03
2.608000000000000000e+03
5.504000000000000000e+03
1.014400000000000000e+04
9.456000000000000000e+03
4.609000000000000000e+03
2.723000000000000000e+03
5.520000000000000000e+03
1.009100000000000000e+04
9.512000000000000000e+03
4.706000000000000000e+03
2.754000000000000000e+03
5.626000000000000000e+03
1.000900000000000000e+04
9.348000000000000000e+03
4.657000000000000000e+03
2.693000000000000000e+03
5.338000000000000000e+03
9.972000000000000000e+03
9.501000000000000000e+03
4.553000000000000000e+03
2.381000000000000000e+03
5.208000000000000000e+03
9.804000000000000000e+03
9.496000000000000000e+03
4.778000000000000000e+03
2.411000000000000000e+03
5.006000000000000000e+03
9.707000000000000000e+03
9.436000000000000000e+03
4.654000000000000000e+03
2.444000000000000000e+03
4.985000000000000000e+03
9.606000000000000000e+03
9.497000000000000000e+03
4.793000000000000000e+03
2.411000000000000000e+03
4.888000000000000000e+03
9.668000000000000000e+03
9.506000000000000000e+03
4.602000000000000000e+03
2.198000000000000000e+03
4.766000000000000000e+03
9.550000000000000000e+03
9.648000000000000000e+03
4.898000000000000000e+03
2.516000000000000000e+03
4.924000000000000000e+03
9.531000000000000000e+03
9.711000000000000000e+03
4.967000000000000000e+03
2.537000000000000000e+03
5.041000000000000000e+03
9.716000000000000000e+03
9.792000000000000000e+03
4.979000000000000000e+03
2.559000000000000000e+03
4.861000000000000000e+03
9.506000000000000000e+03
9.743000000000000000e+03
5.041000000000000000e+03
2.594000000000000000e+03
4.785000000000000000e+03
9.513000000000000000e+03
1.007800000000000000e+04
5.577000000000000000e+03
2.582000000000000000e+03
4.508000000000000000e+03
9.403000000000000000e+03
1.013300000000000000e+04
5.381000000000000000e+03
2.299000000000000000e+03
4.193000000000000000e+03
9.028000000000000000e+03
9.726000000000000000e+03
5.221000000000000000e+03
2.403000000000000000e+03
4.510000000000000000e+03
9.246000000000000000e+03
9.750000000000000000e+03
5.083000000000000000e+03
2.311000000000000000e+03
4.280000000000000000e+03
9.018000000000000000e+03
9.893000000000000000e+03
5.346000000000000000e+03
2.579000000000000000e+03
4.339000000000000000e+03
8.734000000000000000e+03
9.824000000000000000e+03
5.474000000000000000e+03
2.565000000000000000e+03
4.473000000000000000e+03
9.019000000000000000e+03
9.779000000000000000e+03
5.143000000000000000e+03
2.179000000000000000e+03
4.027000000000000000e+03
8.845000000000000000e+03
1.015400000000000000e+04
5.761000000000000000e+03
3.019000000000000000e+03
4.964000000000000000e+03
9.470000000000000000e+03
1.046800000000000000e+04
5.912000000000000000e+03
2.795000000000000000e+03
4.343000000000000000e+03
8.828000000000000000e+03
1.006100000000000000e+04
5.593000000000000000e+03
2.492000000000000000e+03
4.133000000000000000e+03
8.848000000000000000e+03
1.010900000000000000e+04
5.579000000000000000e+03
2.404000000000000000e+03
4.039000000000000000e+03
8.651000000000000000e+03
1.005200000000000000e+04
5.733000000000000000e+03
2.488000000000000000e+03
3.995000000000000000e+03
8.634000000000000000e+03
1.008300000000000000e+04
5.724000000000000000e+03
2.394000000000000000e+03
3.879000000000000000e+03
8.534000000000000000e+03
1.006300000000000000e+04
5.677000000000000000e+03
2.296000000000000000e+03
3.738000000000000000e+03
8.268000000000000000e+03
9.899000000000000000e+03
5.707000000000000000e+03
2.338000000000000000e+03
3.631000000000000000e+03
8.215000000000000000e+03
9.960000000000000000e+03
5.691000000000000000e+03
2.252000000000000000e+03
3.521000000000000000e+03
8.290000000000000000e+03
1.016700000000000000e+04
5.936000000000000000e+03
2.493000000000000000e+03
3.763000000000000000e+03
8.306000000000000000e+03
1.005600000000000000e+04
5.968000000000000000e+03
2.548000000000000000e+03
3.694000000000000000e+03
8.160000000000000000e+03
1.009400000000000000e+04
6.073000000000000000e+03
2.439000000000000000e+03
3.413000000000000000e+03
7.796000000000000000e+03
9.867000000000000000e+03
5.875000000000000000e+03
2.315000000000000000e+03
3.260000000000000000e+03
7.786000000000000000e+03
1.000000000000000000e+04
5.956000000000000000e+03
2.188000000000000000e+03
3.165000000000000000e+03
7.653000000000000000e+03
9.858000000000000000e+03
5.850000000000000000e+03
2.122000000000000000e+03
3.041000000000000000e+03
7.486000000000000000e+03
9.781000000000000000e+03
5.957000000000000000e+03
2.266000000000000000e+03
3.131000000000000000e+03
7.488000000000000000e+03
9.756000000000000000e+03
5.954000000000000000e+03
2.299000000000000000e+03
2.987000000000000000e+03
7.323000000000000000e+03
9.692000000000000000e+03
5.826000000000000000e+03
2.161000000000000000e+03
2.959000000000000000e+03
7.226000000000000000e+03
9.678000000000000000e+03
5.890000000000000000e+03
2.133000000000000000e+03
2.865000000000000000e+03
7.203000000000000000e+03
9.630000000000000000e+03
5.985000000000000000e+03
2.215000000000000000e+03
2.877000000000000000e+03
7.224000000000000000e+03
9.886000000000000000e+03
6.208000000000000000e+03
2.284000000000000000e+03
2.827000000000000000e+03
7.114000000000000000e+03
9.804000000000000000e+03
6.341000000000000000e+03
2.430000000000000000e+03
2.799000000000000000e+03
6.931000000000000000e+03
9.663000000000000000e+03
6.206000000000000000e+03
2.346000000000000000e+03
2.739000000000000000e+03
6.924000000000000000e+03
9.649000000000000000e+03
6.213000000000000000e+03
2.334000000000000000e+03
2.702000000000000000e+03
6.868000000000000000e+03
9.726000000000000000e+03
6.416000000000000000e+03
2.423000000000000000e+03
2.658000000000000000e+03
6.781000000000000000e+03
9.793000000000000000e+03
6.621000000000000000e+03
2.529000000000000000e+03
2.750000000000000000e+03
6.866000000000000000e+03
9.756000000000000000e+03
6.375000000000000000e+03
2.335000000000000000e+03
2.531000000000000000e+03
6.587000000000000000e+03
9.576000000000000000e+03
6.364000000000000000e+03
2.280000000000000000e+03
2.452000000000000000e+03
6.614000000000000000e+03
9.610000000000000000e+03
6.430000000000000000e+03
2.349000000000000000e+03
2.340000000000000000e+03
6.399000000000000000e+03
9.653000000000000000e+03
6.482000000000000000e+03
2.105000000000000000e+03
2.154000000000000000e+03
6.145000000000000000e+03
9.248000000000000000e+03
6.248000000000000000e+03
2.142000000000000000e+03
2.111000000000000000e+03
6.030000000000000000e+03
9.228000000000000000e+03
6.329000000000000000e+03
2.161000000000000000e+03
1.954000000000000000e+03
5.749000000000000000e+03
8.991000000000000000e+03
6.002000000000000000e+03
1.731000000000000000e+03
1.585000000000000000e+03
5.660000000000000000e+03
9.446000000000000000e+03
6.989000000000000000e+03
2.949000000000000000e+03
2.513000000000000000e+03
6.078000000000000000e+03
9.277000000000000000e+03
6.368000000000000000e+03
2.044000000000000000e+03
1.708000000000000000e+03
5.421000000000000000e+03
8.873000000000000000e+03
6.306000000000000000e+03
2.103000000000000000e+03
1.755000000000000000e+03
5.407000000000000000e+03
8.874000000000000000e+03
6.314000000000000000e+03
2.103000000000000000e+03
1.572000000000000000e+03
5.220000000000000000e+03
8.854000000000000000e+03
6.448000000000000000e+03
2.106000000000000000e+03
1.583000000000000000e+03
5.200000000000000000e+03
8.812000000000000000e+03
6.843000000000000000e+03
2.738000000000000000e+03
2.105000000000000000e+03
5.006000000000000000e+03
8.488000000000000000e+03
6.099000000000000000e+03
1.823000000000000000e+03
1.271000000000000000e+03
4.893000000000000000e+03
8.918000000000000000e+03
7.064000000000000000e+03
2.574000000000000000e+03
1.477000000000000000e+03
4.536000000000000000e+03
8.208000000000000000e+03
6.156000000000000000e+03
1.919000000000000000e+03
1.286000000000000000e+03
4.786000000000000000e+03
8.569000000000000000e+03
6.492000000000000000e+03
2.364000000000000000e+03
2.106000000000000000e+03
5.868000000000000000e+03
9.986000000000000000e+03
8.019000000000000000e+03
4.923000000000000000e+03
3.778000000000000000e+03
5.926000000000000000e+03
7.780000000000000000e+03
5.489000000000000000e+03
1.425000000000000000e+03
7.150000000000000000e+02
4.603000000000000000e+03
8.877000000000000000e+03
7.668000000000000000e+03
3.632000000000000000e+03
2.800000000000000000e+03
6.097000000000000000e+03
1.270400000000000000e+04
1.261800000000000000e+04
6.941000000000000000e+03
2.433000000000000000e+03
4.427000000000000000e+03
1.095000000000000000e+04
1.497000000000000000e+04
1.759900000000000000e+04
2.027100000000000000e+04
1.952800000000000000e+04
1.479300000000000000e+04
6.329000000000000000e+03
1.309000000000000000e+03
4.176000000000000000e+03
1.363600000000000000e+04
1.700400000000000000e+04
1.625100000000000000e+04
1.550500000000000000e+04
1.170100000000000000e+04
9.191000000000000000e+03
8.634000000000000000e+03
9.369000000000000000e+03
1.179700000000000000e+04
1.341800000000000000e+04
1.515800000000000000e+04
1.635800000000000000e+04
1.141800000000000000e+04
5.633000000000000000e+03
1.134900000000000000e+04
2.161200000000000000e+04
2.931300000000000000e+04
2.318700000000000000e+04
7.307000000000000000e+03
5.154000000000000000e+03
1.466200000000000000e+04
2.178600000000000000e+04
2.120300000000000000e+04
1.349900000000000000e+04
1.317900000000000000e+04
1.773600000000000000e+04
1.726600000000000000e+04
1.833200000000000000e+04
2.527800000000000000e+04
2.783200000000000000e+04
1.505800000000000000e+04
2.165800000000000000e+04
3.284800000000000000e+04
9.578000000000000000e+03
7.198000000000000000e+03
2.633600000000000000e+04
3.011600000000000000e+04
2.699800000000000000e+04
1.620000000000000000e+04
1.179500000000000000e+04
2.124100000000000000e+04
3.148700000000000000e+04
1.876100000000000000e+04
1.210700000000000000e+04
9.168000000000000000e+03
1.448400000000000000e+04
2.347400000000000000e+04
1.137900000000000000e+04
1.535200000000000000e+04
1.180900000000000000e+04
3.387000000000000000e+03
1.236900000000000000e+04
1.511200000000000000e+04
9.767000000000000000e+03
8.341000000000000000e+03
4.695000000000000000e+03
1.249500000000000000e+04
1.687300000000000000e+04
1.624000000000000000e+03
-5.619000000000000000e+03
-9.780000000000000000e+02
5.128000000000000000e+03
7.858000000000000000e+03
8.007000000000000000e+03
8.493000000000000000e+03
9.612000000000000000e+03
1.423600000000000000e+04
1.438000000000000000e+04
1.010500000000000000e+04
7.903000000000000000e+03
1.037400000000000000e+04
1.531500000000000000e+04
1.464300000000000000e+04
9.659000000000000000e+03
7.523000000000000000e+03
1.044600000000000000e+04
1.553100000000000000e+04
1.471200000000000000e+04
9.448000000000000000e+03
6.916000000000000000e+03
9.388000000000000000e+03
1.405600000000000000e+04
1.399400000000000000e+04
8.982000000000000000e+03
6.332000000000000000e+03
8.812000000000000000e+03
1.391700000000000000e+04
1.401200000000000000e+04
9.881000000000000000e+03
8.019000000000000000e+03
1.014800000000000000e+04
1.485800000000000000e+04
1.603300000000000000e+04
1.263300000000000000e+04
8.016000000000000000e+03
7.948000000000000000e+03
1.204100000000000000e+04
1.235800000000000000e+04
7.622000000000000000e+03
5.416000000000000000e+03
8.111000000000000000e+03
1.301500000000000000e+04
1.361800000000000000e+04
9.156000000000000000e+03
6.218000000000000000e+03
8.308000000000000000e+03
1.291800000000000000e+04
1.332900000000000000e+04
8.743000000000000000e+03
5.997000000000000000e+03
8.018000000000000000e+03
1.272000000000000000e+04
1.313200000000000000e+04
8.445000000000000000e+03
5.751000000000000000e+03
7.851000000000000000e+03
1.239600000000000000e+04
1.273200000000000000e+04
8.084000000000000000e+03
5.413000000000000000e+03
7.421000000000000000e+03
1.175600000000000000e+04
1.210300000000000000e+04
7.808000000000000000e+03
5.149000000000000000e+03
6.853000000000000000e+03
1.120700000000000000e+04
1.190400000000000000e+04
7.229000000000000000e+03
4.363000000000000000e+03
6.188000000000000000e+03
1.074200000000000000e+04
1.152800000000000000e+04
6.912000000000000000e+03
3.961000000000000000e+03
5.783000000000000000e+03
1.033400000000000000e+04
1.089700000000000000e+04
6.144000000000000000e+03
3.308000000000000000e+03
5.101000000000000000e+03
9.548000000000000000e+03
1.051300000000000000e+04
6.004000000000000000e+03
2.993000000000000000e+03
4.776000000000000000e+03
9.449000000000000000e+03
1.035800000000000000e+04
5.761000000000000000e+03
2.667000000000000000e+03
4.456000000000000000e+03
9.192000000000000000e+03
1.035500000000000000e+04
5.741000000000000000e+03
2.424000000000000000e+03
4.133000000000000000e+03
8.840000000000000000e+03
9.990000000000000000e+03
5.429000000000000000e+03
2.186000000000000000e+03
3.712000000000000000e+03
8.430000000000000000e+03
9.784000000000000000e+03
5.379000000000000000e+03
1.992000000000000000e+03
3.503000000000000000e+03
8.228000000000000000e+03
9.536000000000000000e+03
4.918000000000000000e+03
1.748000000000000000e+03
3.258000000000000000e+03
7.911000000000000000e+03
9.474000000000000000e+03
4.916000000000000000e+03
1.470000000000000000e+03
3.027000000000000000e+03
7.673000000000000000e+03
9.243000000000000000e+03
4.741000000000000000e+03
1.248000000000000000e+03
2.726000000000000000e+03
7.439000000000000000e+03
9.129000000000000000e+03
4.769000000000000000e+03
1.181000000000000000e+03
2.507000000000000000e+03
7.223000000000000000e+03
8.954000000000000000e+03
4.609000000000000000e+03
1.097000000000000000e+03
2.298000000000000000e+03
6.894000000000000000e+03
8.828000000000000000e+03
4.689000000000000000e+03
1.234000000000000000e+03
2.469000000000000000e+03
7.126000000000000000e+03
9.122000000000000000e+03
4.874000000000000000e+03
1.193000000000000000e+03
2.286000000000000000e+03
6.916000000000000000e+03
8.987000000000000000e+03
4.719000000000000000e+03
9.930000000000000000e+02
2.089000000000000000e+03
6.784000000000000000e+03
8.938000000000000000e+03
4.853000000000000000e+03
1.074000000000000000e+03
2.153000000000000000e+03
6.879000000000000000e+03
9.129000000000000000e+03
4.969000000000000000e+03
1.198000000000000000e+03
2.144000000000000000e+03
6.669000000000000000e+03
9.044000000000000000e+03
4.946000000000000000e+03
1.059000000000000000e+03
2.003000000000000000e+03
6.378000000000000000e+03
8.804000000000000000e+03
4.839000000000000000e+03
9.760000000000000000e+02
1.785000000000000000e+03
6.416000000000000000e+03
8.964000000000000000e+03
5.029000000000000000e+03
1.036000000000000000e+03
1.663000000000000000e+03
6.136000000000000000e+03
8.856000000000000000e+03
5.051000000000000000e+03
1.041000000000000000e+03
1.667000000000000000e+03
6.101000000000000000e+03
8.661000000000000000e+03
4.906000000000000000e+03
9.810000000000000000e+02
1.541000000000000000e+03
5.977000000000000000e+03
8.769000000000000000e+03
4.946000000000000000e+03
8.860000000000000000e+02
1.337000000000000000e+03
5.416000000000000000e+03
8.149000000000000000e+03
4.786000000000000000e+03
8.280000000000000000e+02
1.430000000000000000e+03
5.838000000000000000e+03
8.911000000000000000e+03
5.694000000000000000e+03
1.690000000000000000e+03
1.984000000000000000e+03
6.104000000000000000e+03
8.924000000000000000e+03
5.314000000000000000e+03
1.064000000000000000e+03
1.419000000000000000e+03
5.821000000000000000e+03
8.634000000000000000e+03
4.972000000000000000e+03
9.390000000000000000e+02
1.361000000000000000e+03
5.689000000000000000e+03
8.641000000000000000e+03
5.283000000000000000e+03
9.360000000000000000e+02
1.169000000000000000e+03
5.548000000000000000e+03
8.574000000000000000e+03
5.273000000000000000e+03
1.050000000000000000e+03
1.093000000000000000e+03
5.367000000000000000e+03
8.541000000000000000e+03
5.288000000000000000e+03
9.980000000000000000e+02
1.003000000000000000e+03
5.333000000000000000e+03
8.514000000000000000e+03
5.327000000000000000e+03
1.124000000000000000e+03
1.018000000000000000e+03
5.097000000000000000e+03
8.388000000000000000e+03
5.229000000000000000e+03
8.690000000000000000e+02
6.710000000000000000e+02
4.755000000000000000e+03
8.518000000000000000e+03
5.566000000000000000e+03
1.203000000000000000e+03
1.076000000000000000e+03
5.155000000000000000e+03
8.438000000000000000e+03
5.519000000000000000e+03
1.275000000000000000e+03
1.017000000000000000e+03
5.009000000000000000e+03
8.526000000000000000e+03
5.583000000000000000e+03
1.178000000000000000e+03
1.126000000000000000e+03
5.249000000000000000e+03
8.523000000000000000e+03
5.696000000000000000e+03
1.333000000000000000e+03
9.650000000000000000e+02
5.109000000000000000e+03
8.869000000000000000e+03
6.083000000000000000e+03
1.606000000000000000e+03
1.143000000000000000e+03
4.996000000000000000e+03
8.610000000000000000e+03
6.051000000000000000e+03
1.552000000000000000e+03
1.080000000000000000e+03
4.885000000000000000e+03
8.669000000000000000e+03
6.228000000000000000e+03
1.868000000000000000e+03
1.308000000000000000e+03
4.969000000000000000e+03
8.703000000000000000e+03
6.286000000000000000e+03
1.789000000000000000e+03
1.199000000000000000e+03
5.064000000000000000e+03
8.957000000000000000e+03
6.416000000000000000e+03
1.800000000000000000e+03
1.126000000000000000e+03
4.789000000000000000e+03
8.644000000000000000e+03
6.410000000000000000e+03
1.869000000000000000e+03
1.205000000000000000e+03
4.831000000000000000e+03
8.704000000000000000e+03
6.463000000000000000e+03
1.871000000000000000e+03
1.151000000000000000e+03
4.851000000000000000e+03
8.820000000000000000e+03
6.700000000000000000e+03
2.101000000000000000e+03
1.128000000000000000e+03
4.567000000000000000e+03
8.641000000000000000e+03
6.664000000000000000e+03
1.994000000000000000e+03
1.145000000000000000e+03
4.783000000000000000e+03
8.832000000000000000e+03
6.923000000000000000e+03
2.391000000000000000e+03
1.418000000000000000e+03
4.786000000000000000e+03
8.889000000000000000e+03
7.033000000000000000e+03
2.224000000000000000e+03
1.228000000000000000e+03
4.886000000000000000e+03
8.913000000000000000e+03
6.866000000000000000e+03
2.347000000000000000e+03
1.310000000000000000e+03
4.628000000000000000e+03
8.847000000000000000e+03
6.995000000000000000e+03
2.353000000000000000e+03
1.428000000000000000e+03
4.874000000000000000e+03
9.048000000000000000e+03
7.388000000000000000e+03
2.516000000000000000e+03
1.208000000000000000e+03
4.593000000000000000e+03
8.878000000000000000e+03
7.289000000000000000e+03
2.589000000000000000e+03
1.246000000000000000e+03
4.657000000000000000e+03
8.984000000000000000e+03
7.459000000000000000e+03
2.654000000000000000e+03
1.109000000000000000e+03
4.286000000000000000e+03
8.862000000000000000e+03
7.618000000000000000e+03
2.657000000000000000e+03
1.159000000000000000e+03
4.346000000000000000e+03
8.745000000000000000e+03
7.323000000000000000e+03
2.493000000000000000e+03
1.063000000000000000e+03
4.173000000000000000e+03
8.476000000000000000e+03
7.264000000000000000e+03
2.638000000000000000e+03
1.179000000000000000e+03
4.047000000000000000e+03
8.376000000000000000e+03
7.244000000000000000e+03
2.396000000000000000e+03
5.780000000000000000e+02
3.602000000000000000e+03
8.041000000000000000e+03
6.983000000000000000e+03
2.117000000000000000e+03
4.780000000000000000e+02
3.771000000000000000e+03
8.597000000000000000e+03
7.960000000000000000e+03
3.274000000000000000e+03
1.261000000000000000e+03
3.917000000000000000e+03
8.272000000000000000e+03
7.503000000000000000e+03
2.754000000000000000e+03
7.810000000000000000e+02
3.586000000000000000e+03
8.073000000000000000e+03
7.349000000000000000e+03
2.608000000000000000e+03
6.110000000000000000e+02
3.446000000000000000e+03
7.891000000000000000e+03
7.291000000000000000e+03
2.726000000000000000e+03
7.210000000000000000e+02
3.397000000000000000e+03
8.002000000000000000e+03
7.509000000000000000e+03
2.807000000000000000e+03
8.760000000000000000e+02
3.568000000000000000e+03
7.913000000000000000e+03
7.459000000000000000e+03
2.579000000000000000e+03
5.030000000000000000e+02
3.363000000000000000e+03
7.934000000000000000e+03
7.447000000000000000e+03
2.673000000000000000e+03
5.890000000000000000e+02
3.264000000000000000e+03
7.752000000000000000e+03
7.509000000000000000e+03
2.830000000000000000e+03
6.340000000000000000e+02
3.156000000000000000e+03
7.604000000000000000e+03
7.459000000000000000e+03
2.905000000000000000e+03
7.190000000000000000e+02
3.298000000000000000e+03
7.767000000000000000e+03
7.668000000000000000e+03
2.729000000000000000e+03
5.440000000000000000e+02
3.106000000000000000e+03
7.748000000000000000e+03
7.637000000000000000e+03
2.789000000000000000e+03
5.020000000000000000e+02
2.869000000000000000e+03
7.461000000000000000e+03
7.643000000000000000e+03
2.886000000000000000e+03
4.100000000000000000e+02
2.705000000000000000e+03
7.295000000000000000e+03
7.543000000000000000e+03
2.774000000000000000e+03
2.570000000000000000e+02
2.558000000000000000e+03
7.107000000000000000e+03
7.571000000000000000e+03
3.060000000000000000e+03
5.540000000000000000e+02
2.721000000000000000e+03
7.189000000000000000e+03
7.659000000000000000e+03
3.245000000000000000e+03
4.930000000000000000e+02
2.573000000000000000e+03
7.368000000000000000e+03
7.821000000000000000e+03
3.122000000000000000e+03
4.030000000000000000e+02
2.464000000000000000e+03
7.116000000000000000e+03
7.781000000000000000e+03
3.214000000000000000e+03
3.510000000000000000e+02
2.386000000000000000e+03
7.119000000000000000e+03
7.798000000000000000e+03
3.248000000000000000e+03
4.240000000000000000e+02
2.416000000000000000e+03
7.058000000000000000e+03
7.813000000000000000e+03
3.323000000000000000e+03
4.930000000000000000e+02
2.279000000000000000e+03
6.779000000000000000e+03
7.484000000000000000e+03
3.133000000000000000e+03
4.920000000000000000e+02
2.344000000000000000e+03
6.701000000000000000e+03
7.592000000000000000e+03
3.284000000000000000e+03
4.290000000000000000e+02
2.276000000000000000e+03
6.598000000000000000e+03
7.610000000000000000e+03
3.285000000000000000e+03
3.650000000000000000e+02
2.118000000000000000e+03
6.528000000000000000e+03
7.528000000000000000e+03
3.185000000000000000e+03
1.070000000000000000e+02
1.756000000000000000e+03
6.331000000000000000e+03
7.643000000000000000e+03
3.271000000000000000e+03
1.500000000000000000e+02
1.978000000000000000e+03
6.452000000000000000e+03
7.414000000000000000e+03
3.098000000000000000e+03
1.580000000000000000e+02
1.876000000000000000e+03
6.291000000000000000e+03
7.439000000000000000e+03
3.279000000000000000e+03
5.300000000000000000e+01
1.453000000000000000e+03
6.039000000000000000e+03
7.414000000000000000e+03
3.214000000000000000e+03
1.820000000000000000e+02
1.514000000000000000e+03
5.850000000000000000e+03
7.344000000000000000e+03
3.186000000000000000e+03
2.700000000000000000e+01
1.379000000000000000e+03
5.791000000000000000e+03
7.363000000000000000e+03
3.074000000000000000e+03
-1.830000000000000000e+02
1.257000000000000000e+03
5.572000000000000000e+03
7.266000000000000000e+03
3.121000000000000000e+03
5.000000000000000000e+00
1.193000000000000000e+03
5.416000000000000000e+03
7.178000000000000000e+03
3.283000000000000000e+03
9.000000000000000000e+00
1.333000000000000000e+03
5.514000000000000000e+03
7.376000000000000000e+03
3.366000000000000000e+03
-4.280000000000000000e+02
4.270000000000000000e+02
4.886000000000000000e+03
6.898000000000000000e+03
3.051000000000000000e+03
-4.000000000000000000e+02
8.740000000000000000e+02
5.476000000000000000e+03
7.429000000000000000e+03
3.979000000000000000e+03
3.240000000000000000e+02
9.050000000000000000e+02
5.062000000000000000e+03
6.988000000000000000e+03
3.064000000000000000e+03
-4.210000000000000000e+02
6.330000000000000000e+02
5.034000000000000000e+03
7.049000000000000000e+03
3.089000000000000000e+03
-6.120000000000000000e+02
4.640000000000000000e+02
4.908000000000000000e+03
6.962000000000000000e+03
3.213000000000000000e+03
-2.730000000000000000e+02
4.930000000000000000e+02
4.656000000000000000e+03
6.822000000000000000e+03
3.017000000000000000e+03
-5.040000000000000000e+02
2.240000000000000000e+02
4.374000000000000000e+03
6.653000000000000000e+03
3.068000000000000000e+03
-5.960000000000000000e+02
3.430000000000000000e+02
4.556000000000000000e+03
6.799000000000000000e+03
3.268000000000000000e+03
-4.600000000000000000e+02
1.780000000000000000e+02
4.331000000000000000e+03
6.703000000000000000e+03
3.591000000000000000e+03
-3.620000000000000000e+02
-2.190000000000000000e+02
3.872000000000000000e+03
6.474000000000000000e+03
3.136000000000000000e+03
-6.810000000000000000e+02
-1.970000000000000000e+02
4.040000000000000000e+03
6.732000000000000000e+03
3.263000000000000000e+03
-4.540000000000000000e+02
2.100000000000000000e+01
3.865000000000000000e+03
6.619000000000000000e+03
3.411000000000000000e+03
-6.150000000000000000e+02
-3.470000000000000000e+02
3.656000000000000000e+03
6.388000000000000000e+03
3.130000000000000000e+03
-8.640000000000000000e+02
-5.390000000000000000e+02
3.611000000000000000e+03
6.333000000000000000e+03
3.156000000000000000e+03
-7.560000000000000000e+02
-5.470000000000000000e+02
3.409000000000000000e+03
6.240000000000000000e+03
3.158000000000000000e+03
-8.140000000000000000e+02
-5.220000000000000000e+02
3.378000000000000000e+03
6.146000000000000000e+03
3.107000000000000000e+03
-7.260000000000000000e+02
-7.060000000000000000e+02
3.166000000000000000e+03
6.156000000000000000e+03
3.051000000000000000e+03
-1.013000000000000000e+03
-9.750000000000000000e+02
2.786000000000000000e+03
5.798000000000000000e+03
2.723000000000000000e+03
-1.431000000000000000e+03
-1.444000000000000000e+03
2.594000000000000000e+03
5.849000000000000000e+03
2.883000000000000000e+03
-1.267000000000000000e+03
-1.443000000000000000e+03
2.615000000000000000e+03
5.864000000000000000e+03
3.534000000000000000e+03
-3.990000000000000000e+02
-7.450000000000000000e+02
2.308000000000000000e+03
5.314000000000000000e+03
2.773000000000000000e+03
-1.063000000000000000e+03
-1.181000000000000000e+03
2.444000000000000000e+03
5.788000000000000000e+03
3.237000000000000000e+03
-1.070000000000000000e+03
-1.237000000000000000e+03
2.616000000000000000e+03
5.714000000000000000e+03
2.623000000000000000e+03
-1.517000000000000000e+03
-1.949000000000000000e+03
1.796000000000000000e+03
5.138000000000000000e+03
2.814000000000000000e+03
-6.400000000000000000e+02
4.060000000000000000e+02
4.426000000000000000e+03
7.145000000000000000e+03
2.947000000000000000e+03
-1.672000000000000000e+03
-2.267000000000000000e+03
1.301000000000000000e+03
5.303000000000000000e+03
3.814000000000000000e+03
-2.000000000000000000e+02
-1.384000000000000000e+03
1.734000000000000000e+03
5.698000000000000000e+03
4.731000000000000000e+03
3.160000000000000000e+03
2.473000000000000000e+03
3.868000000000000000e+03
4.645000000000000000e+03
2.016000000000000000e+03
-1.407000000000000000e+03
-8.910000000000000000e+02
3.344000000000000000e+03
8.121000000000000000e+03
6.103000000000000000e+03
2.098000000000000000e+03
1.336000000000000000e+03
4.956000000000000000e+03
7.975000000000000000e+03
6.310000000000000000e+03
1.856000000000000000e+03
9.410000000000000000e+02
4.212000000000000000e+03
1.029600000000000000e+04
1.273100000000000000e+04
1.349300000000000000e+04
1.613900000000000000e+04
1.391500000000000000e+04
1.002800000000000000e+04
4.026000000000000000e+03
2.113000000000000000e+03
4.307000000000000000e+03
7.808000000000000000e+03
1.103600000000000000e+04
9.579000000000000000e+03
6.728000000000000000e+03
1.118200000000000000e+04
1.386700000000000000e+04
1.263400000000000000e+04
6.304000000000000000e+03
1.109000000000000000e+03
2.378000000000000000e+03
1.172100000000000000e+04
2.419200000000000000e+04
1.805100000000000000e+04
4.626000000000000000e+03
3.451000000000000000e+03
6.916000000000000000e+03
1.547800000000000000e+04
1.835100000000000000e+04
5.193000000000000000e+03
1.924000000000000000e+03
1.715900000000000000e+04
2.403100000000000000e+04
1.656400000000000000e+04
2.980000000000000000e+03
5.414000000000000000e+03
1.961800000000000000e+04
2.671800000000000000e+04
2.499100000000000000e+04
1.828400000000000000e+04
4.295000000000000000e+03
1.091100000000000000e+04
2.693000000000000000e+04
2.311900000000000000e+04
1.783600000000000000e+04
1.158600000000000000e+04
1.531000000000000000e+04
2.626000000000000000e+04
2.288400000000000000e+04
1.419400000000000000e+04
1.218600000000000000e+04
1.801400000000000000e+04
1.741300000000000000e+04
1.650000000000000000e+04
1.598900000000000000e+04
1.480500000000000000e+04
1.425800000000000000e+04
2.138800000000000000e+04
1.272100000000000000e+04
7.286000000000000000e+03
8.409000000000000000e+03
1.338900000000000000e+04
1.659900000000000000e+04
5.951000000000000000e+03
1.917000000000000000e+03
4.731000000000000000e+03
1.268400000000000000e+04
1.160600000000000000e+04
9.138000000000000000e+03
5.388000000000000000e+03
-2.720000000000000000e+02
1.214000000000000000e+03
4.979000000000000000e+03
1.124000000000000000e+03
-6.800000000000000000e+03
-2.240000000000000000e+02
8.241000000000000000e+03
1.320100000000000000e+04
1.115300000000000000e+04
6.239000000000000000e+03
5.099000000000000000e+03
8.721000000000000000e+03
1.284900000000000000e+04
1.185700000000000000e+04
7.103000000000000000e+03
5.248000000000000000e+03
7.841000000000000000e+03
1.238500000000000000e+04
1.136300000000000000e+04
6.432000000000000000e+03
4.028000000000000000e+03
7.091000000000000000e+03
1.142400000000000000e+04
1.034000000000000000e+04
5.449000000000000000e+03
3.131000000000000000e+03
5.636000000000000000e+03
1.044100000000000000e+04
9.807000000000000000e+03
4.712000000000000000e+03
3.076000000000000000e+03
7.465000000000000000e+03
1.414600000000000000e+04
1.156200000000000000e+04
5.071000000000000000e+03
2.641000000000000000e+03
4.886000000000000000e+03
1.102000000000000000e+04
1.091800000000000000e+04
5.090000000000000000e+03
2.284000000000000000e+03
4.698000000000000000e+03
9.703000000000000000e+03
9.720000000000000000e+03
5.083000000000000000e+03
2.985000000000000000e+03
5.473000000000000000e+03
9.998000000000000000e+03
9.793000000000000000e+03
5.064000000000000000e+03
2.291000000000000000e+03
4.631000000000000000e+03
9.291000000000000000e+03
9.400000000000000000e+03
4.691000000000000000e+03
2.093000000000000000e+03
4.451000000000000000e+03
8.848000000000000000e+03
8.833000000000000000e+03
4.133000000000000000e+03
1.546000000000000000e+03
3.806000000000000000e+03
8.551000000000000000e+03
8.405000000000000000e+03
3.533000000000000000e+03
1.373000000000000000e+03
3.437000000000000000e+03
7.853000000000000000e+03
8.155000000000000000e+03
3.394000000000000000e+03
7.130000000000000000e+02
2.773000000000000000e+03
7.249000000000000000e+03
7.528000000000000000e+03
2.854000000000000000e+03
1.940000000000000000e+02
2.171000000000000000e+03
6.592000000000000000e+03
7.037000000000000000e+03
2.546000000000000000e+03
-1.220000000000000000e+02
1.748000000000000000e+03
6.126000000000000000e+03
6.652000000000000000e+03
2.065000000000000000e+03
-8.530000000000000000e+02
8.190000000000000000e+02
5.357000000000000000e+03
5.979000000000000000e+03
1.823000000000000000e+03
-8.750000000000000000e+02
1.067000000000000000e+03
5.580000000000000000e+03
6.259000000000000000e+03
1.696000000000000000e+03
-1.234000000000000000e+03
8.310000000000000000e+02
5.316000000000000000e+03
5.749000000000000000e+03
1.025000000000000000e+03
-1.944000000000000000e+03
-1.000000000000000000e+00
4.456000000000000000e+03
5.342000000000000000e+03
7.740000000000000000e+02
-2.209000000000000000e+03
-2.360000000000000000e+02
4.291000000000000000e+03
5.149000000000000000e+03
6.000000000000000000e+02
-2.593000000000000000e+03
-9.380000000000000000e+02
3.755000000000000000e+03
5.078000000000000000e+03
5.130000000000000000e+02
-2.252000000000000000e+03
-1.270000000000000000e+02
4.777000000000000000e+03
6.052000000000000000e+03
1.235000000000000000e+03
-2.317000000000000000e+03
-8.440000000000000000e+02
4.143000000000000000e+03
6.036000000000000000e+03
1.507000000000000000e+03
-2.461000000000000000e+03
-1.379000000000000000e+03
3.686000000000000000e+03
5.206000000000000000e+03
4.410000000000000000e+02
-2.844000000000000000e+03
-1.153000000000000000e+03
3.561000000000000000e+03
5.108000000000000000e+03
7.590000000000000000e+02
-2.649000000000000000e+03
-1.256000000000000000e+03
3.455000000000000000e+03
5.165000000000000000e+03
9.380000000000000000e+02
-2.422000000000000000e+03
-9.700000000000000000e+02
3.629000000000000000e+03
5.158000000000000000e+03
8.090000000000000000e+02
-2.396000000000000000e+03
-1.179000000000000000e+03
3.670000000000000000e+03
5.644000000000000000e+03
1.612000000000000000e+03
-2.357000000000000000e+03
-1.619000000000000000e+03
3.263000000000000000e+03
5.078000000000000000e+03
5.740000000000000000e+02
-2.902000000000000000e+03
-1.345000000000000000e+03
2.936000000000000000e+03
4.623000000000000000e+03
7.560000000000000000e+02
-2.627000000000000000e+03
-1.434000000000000000e+03
2.965000000000000000e+03
5.025000000000000000e+03
9.250000000000000000e+02
-2.770000000000000000e+03
-1.709000000000000000e+03
2.807000000000000000e+03
5.118000000000000000e+03
1.039000000000000000e+03
-2.829000000000000000e+03
-1.899000000000000000e+03
2.570000000000000000e+03
4.946000000000000000e+03
1.064000000000000000e+03
-2.906000000000000000e+03
-2.062000000000000000e+03
2.302000000000000000e+03
4.653000000000000000e+03
1.064000000000000000e+03
-2.558000000000000000e+03
-2.097000000000000000e+03
2.367000000000000000e+03
4.580000000000000000e+03
7.800000000000000000e+02
-2.948000000000000000e+03
-1.881000000000000000e+03
2.651000000000000000e+03
4.829000000000000000e+03
1.193000000000000000e+03
-2.452000000000000000e+03
-1.555000000000000000e+03
2.753000000000000000e+03
4.913000000000000000e+03
1.196000000000000000e+03
-2.741000000000000000e+03
-1.904000000000000000e+03
2.538000000000000000e+03
5.238000000000000000e+03
1.217000000000000000e+03
-2.647000000000000000e+03
-1.769000000000000000e+03
2.653000000000000000e+03
5.300000000000000000e+03
1.563000000000000000e+03
-2.466000000000000000e+03
-2.204000000000000000e+03
2.081000000000000000e+03
5.014000000000000000e+03
1.699000000000000000e+03
-2.193000000000000000e+03
-1.916000000000000000e+03
2.300000000000000000e+03
5.086000000000000000e+03
1.629000000000000000e+03
-2.429000000000000000e+03
-2.111000000000000000e+03
2.147000000000000000e+03
4.954000000000000000e+03
1.423000000000000000e+03
-2.635000000000000000e+03
-2.551000000000000000e+03
2.075000000000000000e+03
5.128000000000000000e+03
1.546000000000000000e+03
-2.330000000000000000e+03
-2.279000000000000000e+03
1.953000000000000000e+03
4.933000000000000000e+03
1.449000000000000000e+03
-2.492000000000000000e+03
-2.015000000000000000e+03
1.793000000000000000e+03
4.529000000000000000e+03
1.473000000000000000e+03
-2.634000000000000000e+03
-2.360000000000000000e+03
1.839000000000000000e+03
4.579000000000000000e+03
1.499000000000000000e+03
-2.340000000000000000e+03
-2.433000000000000000e+03
1.434000000000000000e+03
4.584000000000000000e+03
1.533000000000000000e+03
-2.665000000000000000e+03
-2.779000000000000000e+03
1.489000000000000000e+03
4.936000000000000000e+03
1.662000000000000000e+03
-2.577000000000000000e+03
-2.454000000000000000e+03
1.691000000000000000e+03
4.633000000000000000e+03
1.466000000000000000e+03
-2.566000000000000000e+03
-2.471000000000000000e+03
1.489000000000000000e+03
4.728000000000000000e+03
1.761000000000000000e+03
-2.282000000000000000e+03
-2.396000000000000000e+03
1.514000000000000000e+03
4.856000000000000000e+03
1.896000000000000000e+03
-2.339000000000000000e+03
-2.512000000000000000e+03
1.354000000000000000e+03
4.834000000000000000e+03
2.080000000000000000e+03
-2.233000000000000000e+03
-2.526000000000000000e+03
1.146000000000000000e+03
4.303000000000000000e+03
1.695000000000000000e+03
-2.486000000000000000e+03
-3.079000000000000000e+03
7.340000000000000000e+02
4.416000000000000000e+03
2.167000000000000000e+03
-1.752000000000000000e+03
-2.110000000000000000e+03
1.480000000000000000e+03
4.929000000000000000e+03
2.216000000000000000e+03
-2.140000000000000000e+03
-2.604000000000000000e+03
1.063000000000000000e+03
4.596000000000000000e+03
2.144000000000000000e+03
-2.078000000000000000e+03
-2.804000000000000000e+03
8.450000000000000000e+02
4.776000000000000000e+03
2.330000000000000000e+03
-2.145000000000000000e+03
-2.826000000000000000e+03
9.360000000000000000e+02
4.790000000000000000e+03
2.311000000000000000e+03
-2.025000000000000000e+03
-2.609000000000000000e+03
8.610000000000000000e+02
4.442000000000000000e+03
2.159000000000000000e+03
-2.195000000000000000e+03
-3.122000000000000000e+03
3.530000000000000000e+02
4.485000000000000000e+03
2.413000000000000000e+03
-2.119000000000000000e+03
-2.912000000000000000e+03
7.440000000000000000e+02
4.679000000000000000e+03
2.243000000000000000e+03
-2.251000000000000000e+03
-2.943000000000000000e+03
4.200000000000000000e+02
4.269000000000000000e+03
2.311000000000000000e+03
-2.167000000000000000e+03
-3.115000000000000000e+03
2.580000000000000000e+02
4.194000000000000000e+03
2.359000000000000000e+03
-2.092000000000000000e+03
-3.073000000000000000e+03
4.750000000000000000e+02
4.304000000000000000e+03
2.396000000000000000e+03
-1.962000000000000000e+03
-3.019000000000000000e+03
2.310000000000000000e+02
4.183000000000000000e+03
2.449000000000000000e+03
-1.987000000000000000e+03
-3.080000000000000000e+03
2.580000000000000000e+02
4.095000000000000000e+03
2.405000000000000000e+03
-1.893000000000000000e+03
-2.956000000000000000e+03
5.800000000000000000e+01
4.099000000000000000e+03
2.443000000000000000e+03
-2.169000000000000000e+03
-3.274000000000000000e+03
1.940000000000000000e+02
4.256000000000000000e+03
2.562000000000000000e+03
-2.322000000000000000e+03
-3.402000000000000000e+03
-2.180000000000000000e+02
3.790000000000000000e+03
2.245000000000000000e+03
-2.122000000000000000e+03
-3.264000000000000000e+03
-1.790000000000000000e+02
4.111000000000000000e+03
2.622000000000000000e+03
-1.930000000000000000e+03
-3.324000000000000000e+03
-2.000000000000000000e+02
3.860000000000000000e+03
2.601000000000000000e+03
-1.998000000000000000e+03
-3.429000000000000000e+03
-3.750000000000000000e+02
3.771000000000000000e+03
2.519000000000000000e+03
-2.039000000000000000e+03
-3.284000000000000000e+03
-3.990000000000000000e+02
3.879000000000000000e+03
2.799000000000000000e+03
-1.872000000000000000e+03
-3.416000000000000000e+03
-6.460000000000000000e+02
3.589000000000000000e+03
2.433000000000000000e+03
-1.960000000000000000e+03
-3.087000000000000000e+03
-5.740000000000000000e+02
3.224000000000000000e+03
2.445000000000000000e+03
-1.924000000000000000e+03
-3.504000000000000000e+03
-6.110000000000000000e+02
3.527000000000000000e+03
2.573000000000000000e+03
-1.899000000000000000e+03
-3.549000000000000000e+03
-7.790000000000000000e+02
3.286000000000000000e+03
2.609000000000000000e+03
-1.897000000000000000e+03
-3.786000000000000000e+03
-1.255000000000000000e+03
2.932000000000000000e+03
2.606000000000000000e+03
-1.861000000000000000e+03
-3.750000000000000000e+03
-9.510000000000000000e+02
3.325000000000000000e+03
2.804000000000000000e+03
-1.626000000000000000e+03
-3.658000000000000000e+03
-1.106000000000000000e+03
3.311000000000000000e+03
2.846000000000000000e+03
-1.785000000000000000e+03
-3.789000000000000000e+03
-9.910000000000000000e+02
3.381000000000000000e+03
3.019000000000000000e+03
-1.416000000000000000e+03
-3.175000000000000000e+03
-5.410000000000000000e+02
3.499000000000000000e+03
2.476000000000000000e+03
-2.089000000000000000e+03
-4.124000000000000000e+03
-1.482000000000000000e+03
2.918000000000000000e+03
2.846000000000000000e+03
-1.322000000000000000e+03
-3.421000000000000000e+03
-1.119000000000000000e+03
3.195000000000000000e+03
3.438000000000000000e+03
-3.920000000000000000e+02
-2.797000000000000000e+03
-1.283000000000000000e+03
2.461000000000000000e+03
2.487000000000000000e+03
-1.920000000000000000e+03
-4.067000000000000000e+03
-1.260000000000000000e+03
3.009000000000000000e+03
2.741000000000000000e+03
-2.222000000000000000e+03
-4.032000000000000000e+03
-1.357000000000000000e+03
3.118000000000000000e+03
3.252000000000000000e+03
-1.111000000000000000e+03
-3.449000000000000000e+03
-1.395000000000000000e+03
2.718000000000000000e+03
3.004000000000000000e+03
-1.274000000000000000e+03
-3.594000000000000000e+03
-1.580000000000000000e+03
2.721000000000000000e+03
3.141000000000000000e+03
-1.299000000000000000e+03
-3.659000000000000000e+03
-1.594000000000000000e+03
2.762000000000000000e+03
3.111000000000000000e+03
-1.131000000000000000e+03
-3.553000000000000000e+03
-1.734000000000000000e+03
2.597000000000000000e+03
3.144000000000000000e+03
-1.227000000000000000e+03
-3.577000000000000000e+03
-1.507000000000000000e+03
2.814000000000000000e+03
3.366000000000000000e+03
-1.311000000000000000e+03
-4.060000000000000000e+03
-2.102000000000000000e+03
2.481000000000000000e+03
3.169000000000000000e+03
-8.710000000000000000e+02
-3.542000000000000000e+03
-2.162000000000000000e+03
2.112000000000000000e+03
3.030000000000000000e+03
-1.338000000000000000e+03
-4.007000000000000000e+03
-2.042000000000000000e+03
2.367000000000000000e+03
3.241000000000000000e+03
-1.034000000000000000e+03
-3.925000000000000000e+03
-2.329000000000000000e+03
2.028000000000000000e+03
2.945000000000000000e+03
-1.158000000000000000e+03
-4.059000000000000000e+03
-2.522000000000000000e+03
1.734000000000000000e+03
2.861000000000000000e+03
-1.184000000000000000e+03
-4.064000000000000000e+03
-2.499000000000000000e+03
1.806000000000000000e+03
2.931000000000000000e+03
-1.236000000000000000e+03
-4.210000000000000000e+03
-2.630000000000000000e+03
1.816000000000000000e+03
3.029000000000000000e+03
-1.327000000000000000e+03
-4.196000000000000000e+03
-2.603000000000000000e+03
1.768000000000000000e+03
2.948000000000000000e+03
-1.195000000000000000e+03
-4.271000000000000000e+03
-2.905000000000000000e+03
1.564000000000000000e+03
2.946000000000000000e+03
-1.261000000000000000e+03
-4.277000000000000000e+03
-2.787000000000000000e+03
1.536000000000000000e+03
2.838000000000000000e+03
-1.271000000000000000e+03
-4.279000000000000000e+03
-2.897000000000000000e+03
1.227000000000000000e+03
2.843000000000000000e+03
-1.075000000000000000e+03
-4.390000000000000000e+03
-3.276000000000000000e+03
8.940000000000000000e+02
2.709000000000000000e+03
-1.247000000000000000e+03
-4.461000000000000000e+03
-3.309000000000000000e+03
9.610000000000000000e+02
2.633000000000000000e+03
-1.271000000000000000e+03
-4.489000000000000000e+03
-3.296000000000000000e+03
1.013000000000000000e+03
2.617000000000000000e+03
-1.269000000000000000e+03
-4.352000000000000000e+03
-3.542000000000000000e+03
3.810000000000000000e+02
2.339000000000000000e+03
-1.502000000000000000e+03
-4.928000000000000000e+03
-3.696000000000000000e+03
6.430000000000000000e+02
2.382000000000000000e+03
-1.573000000000000000e+03
-4.914000000000000000e+03
-4.061000000000000000e+03
1.500000000000000000e+02
2.217000000000000000e+03
-1.538000000000000000e+03
-4.963000000000000000e+03
-4.229000000000000000e+03
-1.810000000000000000e+02
2.027000000000000000e+03
-1.654000000000000000e+03
-5.350000000000000000e+03
-4.640000000000000000e+03
-3.800000000000000000e+02
1.933000000000000000e+03
-1.784000000000000000e+03
-5.487000000000000000e+03
-4.742000000000000000e+03
-6.320000000000000000e+02
1.552000000000000000e+03
-2.146000000000000000e+03
-5.800000000000000000e+03
-5.249000000000000000e+03
-1.399000000000000000e+03
1.007000000000000000e+03
-2.504000000000000000e+03
-6.191000000000000000e+03
-5.358000000000000000e+03
-1.099000000000000000e+03
1.100000000000000000e+03
-2.395000000000000000e+03
-5.906000000000000000e+03
-5.257000000000000000e+03
-1.142000000000000000e+03
1.406000000000000000e+03
-2.226000000000000000e+03
-5.610000000000000000e+03
-4.607000000000000000e+03
-7.840000000000000000e+02
1.313000000000000000e+03
-1.878000000000000000e+03
-5.634000000000000000e+03
-5.288000000000000000e+03
-1.287000000000000000e+03
2.100000000000000000e+03
-3.840000000000000000e+02
-4.174000000000000000e+03
-5.191000000000000000e+03
-2.072000000000000000e+03
4.540000000000000000e+02
-2.564000000000000000e+03
-5.210000000000000000e+03
-3.151000000000000000e+03
2.377000000000000000e+03
5.324000000000000000e+03
2.630000000000000000e+02
-4.959000000000000000e+03
-5.095000000000000000e+03
-6.220000000000000000e+02
4.082000000000000000e+03
1.217000000000000000e+03
-3.006000000000000000e+03
-2.911000000000000000e+03
3.079000000000000000e+03
8.075000000000000000e+03
4.955000000000000000e+03
1.294000000000000000e+03
2.909000000000000000e+03
7.908000000000000000e+03
1.155600000000000000e+04
1.011100000000000000e+04
2.949000000000000000e+03
-4.077000000000000000e+03
1.940000000000000000e+02
1.241300000000000000e+04
2.253100000000000000e+04
1.626900000000000000e+04
1.984000000000000000e+03
5.281000000000000000e+03
1.192300000000000000e+04
5.551000000000000000e+03
-4.371000000000000000e+03
-6.236000000000000000e+03
8.939000000000000000e+03
2.188500000000000000e+04
1.482800000000000000e+04
1.008000000000000000e+03
6.445000000000000000e+03
2.090400000000000000e+04
1.574300000000000000e+04
4.420000000000000000e+02
4.129000000000000000e+03
1.633600000000000000e+04
1.836700000000000000e+04
1.803500000000000000e+04
1.507000000000000000e+04
-1.584000000000000000e+03
-7.400000000000000000e+01
2.375300000000000000e+04
2.378800000000000000e+04
7.369000000000000000e+03
4.343000000000000000e+03
5.225000000000000000e+03
1.098800000000000000e+04
1.682400000000000000e+04
1.342100000000000000e+04
8.836000000000000000e+03
1.311100000000000000e+04
3.501000000000000000e+03
-3.312000000000000000e+03
9.537000000000000000e+03
1.477600000000000000e+04
9.250000000000000000e+03
1.318100000000000000e+04
5.901000000000000000e+03
-4.962000000000000000e+03
-8.214000000000000000e+03
-1.571000000000000000e+03
1.132400000000000000e+04
2.144000000000000000e+03
-8.334000000000000000e+03
-6.651000000000000000e+03
-1.261300000000000000e+04
-9.508000000000000000e+03
1.447000000000000000e+03
4.888000000000000000e+03
2.558000000000000000e+03
9.800000000000000000e+01
3.054000000000000000e+03
7.420000000000000000e+03
5.254000000000000000e+03
1.161000000000000000e+03
9.070000000000000000e+02
4.178000000000000000e+03
7.937000000000000000e+03
5.773000000000000000e+03
9.720000000000000000e+02
1.230000000000000000e+02
3.251000000000000000e+03
6.624000000000000000e+03
3.848000000000000000e+03
-4.070000000000000000e+02
-1.206000000000000000e+03
2.908000000000000000e+03
6.475000000000000000e+03
3.267000000000000000e+03
-1.443000000000000000e+03
-2.106000000000000000e+03
1.940000000000000000e+03
8.023000000000000000e+03
8.270000000000000000e+03
4.050000000000000000e+02
-1.457000000000000000e+03
3.610000000000000000e+02
4.299000000000000000e+03
3.967000000000000000e+03
-1.960000000000000000e+02
-2.499000000000000000e+03
6.940000000000000000e+02
4.579000000000000000e+03
2.726000000000000000e+03
-1.667000000000000000e+03
-2.574000000000000000e+03
8.160000000000000000e+02
4.825000000000000000e+03
2.994000000000000000e+03
-1.572000000000000000e+03
-2.371000000000000000e+03
1.136000000000000000e+03
5.254000000000000000e+03
2.776000000000000000e+03
-2.144000000000000000e+03
-3.381000000000000000e+03
-1.180000000000000000e+02
4.241000000000000000e+03
2.916000000000000000e+03
-1.898000000000000000e+03
-3.702000000000000000e+03
-4.330000000000000000e+02
3.634000000000000000e+03
2.029000000000000000e+03
-2.524000000000000000e+03
-3.747000000000000000e+03
-9.300000000000000000e+01
3.882000000000000000e+03
1.509000000000000000e+03
-3.061000000000000000e+03
-4.222000000000000000e+03
-1.171000000000000000e+03
3.086000000000000000e+03
1.726000000000000000e+03
-2.947000000000000000e+03
-4.575000000000000000e+03
-1.539000000000000000e+03
2.854000000000000000e+03
1.521000000000000000e+03
-3.349000000000000000e+03
-4.941000000000000000e+03
-1.921000000000000000e+03
2.260000000000000000e+03
8.960000000000000000e+02
-3.769000000000000000e+03
-5.229000000000000000e+03
-2.360000000000000000e+03
1.839000000000000000e+03
8.150000000000000000e+02
-3.867000000000000000e+03
-5.547000000000000000e+03
-2.632000000000000000e+03
1.529000000000000000e+03
2.280000000000000000e+02
-4.299000000000000000e+03
-6.062000000000000000e+03
-3.365000000000000000e+03
1.018000000000000000e+03
9.800000000000000000e+01
-4.482000000000000000e+03
-5.949000000000000000e+03
-2.911000000000000000e+03
1.458000000000000000e+03
6.000000000000000000e+02
-4.252000000000000000e+03
-6.316000000000000000e+03
-3.591000000000000000e+03
8.410000000000000000e+02
-2.400000000000000000e+01
-4.666000000000000000e+03
-6.487000000000000000e+03
-3.917000000000000000e+03
5.590000000000000000e+02
-1.510000000000000000e+02
-4.935000000000000000e+03
-6.921000000000000000e+03
-4.302000000000000000e+03
2.290000000000000000e+02
-1.740000000000000000e+02
-4.788000000000000000e+03
-7.057000000000000000e+03
-4.639000000000000000e+03
1.260000000000000000e+02
-2.240000000000000000e+02
-5.249000000000000000e+03
-7.214000000000000000e+03
-4.608000000000000000e+03
-1.760000000000000000e+02
-7.400000000000000000e+02
-5.371000000000000000e+03
-7.548000000000000000e+03
-4.923000000000000000e+03
-3.540000000000000000e+02
-5.040000000000000000e+02
-5.292000000000000000e+03
-7.785000000000000000e+03
-4.921000000000000000e+03
-1.960000000000000000e+02
-4.230000000000000000e+02
-5.236000000000000000e+03
-7.729000000000000000e+03
-5.323000000000000000e+03
-7.670000000000000000e+02
-8.300000000000000000e+02
-5.370000000000000000e+03
-7.651000000000000000e+03
-5.166000000000000000e+03
-7.830000000000000000e+02
-8.090000000000000000e+02
-5.470000000000000000e+03
-7.962000000000000000e+03
-5.479000000000000000e+03
-6.560000000000000000e+02
-5.910000000000000000e+02
-5.452000000000000000e+03
-7.871000000000000000e+03
-5.800000000000000000e+03
-1.282000000000000000e+03
-6.510000000000000000e+02
-5.245000000000000000e+03
-8.009000000000000000e+03
-5.789000000000000000e+03
-1.288000000000000000e+03
-1.394000000000000000e+03
-5.890000000000000000e+03
-8.312000000000000000e+03
-6.184000000000000000e+03
-1.511000000000000000e+03
-1.091000000000000000e+03
-5.704000000000000000e+03
-8.234000000000000000e+03
-6.191000000000000000e+03
-1.604000000000000000e+03
-1.203000000000000000e+03
-5.732000000000000000e+03
-8.227000000000000000e+03
-6.180000000000000000e+03
-1.595000000000000000e+03
-1.158000000000000000e+03
-5.755000000000000000e+03
-8.301000000000000000e+03
-6.134000000000000000e+03
-1.611000000000000000e+03
-1.136000000000000000e+03
-5.649000000000000000e+03
-8.337000000000000000e+03
-6.562000000000000000e+03
-2.149000000000000000e+03
-1.203000000000000000e+03
-5.186000000000000000e+03
-8.082000000000000000e+03
-6.326000000000000000e+03
-2.021000000000000000e+03
-1.400000000000000000e+03
-5.670000000000000000e+03
-8.421000000000000000e+03
-6.654000000000000000e+03
-2.211000000000000000e+03
-1.377000000000000000e+03
-5.926000000000000000e+03
-8.746000000000000000e+03
-6.656000000000000000e+03
-2.338000000000000000e+03
-1.537000000000000000e+03
-6.091000000000000000e+03
-8.648000000000000000e+03
-6.643000000000000000e+03
-2.363000000000000000e+03
-1.435000000000000000e+03
-5.763000000000000000e+03
-8.627000000000000000e+03
-6.744000000000000000e+03
-2.187000000000000000e+03
-1.119000000000000000e+03
-5.561000000000000000e+03
-8.659000000000000000e+03
-6.746000000000000000e+03
-2.284000000000000000e+03
-1.272000000000000000e+03
-5.421000000000000000e+03
-8.374000000000000000e+03
-6.814000000000000000e+03
-2.534000000000000000e+03
-1.300000000000000000e+03
-5.552000000000000000e+03
-8.537000000000000000e+03
-7.016000000000000000e+03
-2.601000000000000000e+03
-1.376000000000000000e+03
-5.490000000000000000e+03
-8.604000000000000000e+03
-7.070000000000000000e+03
-2.521000000000000000e+03
-1.092000000000000000e+03
-5.295000000000000000e+03
-8.365000000000000000e+03
-7.140000000000000000e+03
-2.657000000000000000e+03
-1.069000000000000000e+03
-5.300000000000000000e+03
-8.549000000000000000e+03
-7.241000000000000000e+03
-2.838000000000000000e+03
-1.212000000000000000e+03
-5.256000000000000000e+03
-8.561000000000000000e+03
-7.212000000000000000e+03
-2.924000000000000000e+03
-1.133000000000000000e+03
-5.286000000000000000e+03
-8.482000000000000000e+03
-7.099000000000000000e+03
-3.007000000000000000e+03
-1.307000000000000000e+03
-5.171000000000000000e+03
-8.564000000000000000e+03
-7.590000000000000000e+03
-3.601000000000000000e+03
-1.780000000000000000e+03
-5.499000000000000000e+03
-8.714000000000000000e+03
-7.467000000000000000e+03
-2.986000000000000000e+03
-7.170000000000000000e+02
-4.491000000000000000e+03
-8.216000000000000000e+03
-7.442000000000000000e+03
-3.319000000000000000e+03
-1.361000000000000000e+03
-5.142000000000000000e+03
-8.644000000000000000e+03
-7.707000000000000000e+03
-3.592000000000000000e+03
-1.454000000000000000e+03
-5.231000000000000000e+03
-8.758000000000000000e+03
-7.763000000000000000e+03
-3.321000000000000000e+03
-1.140000000000000000e+03
-5.044000000000000000e+03
-8.812000000000000000e+03
-7.984000000000000000e+03
-3.841000000000000000e+03
-1.454000000000000000e+03
-5.047000000000000000e+03
-8.437000000000000000e+03
-8.023000000000000000e+03
-3.985000000000000000e+03
-1.411000000000000000e+03
-4.996000000000000000e+03
-8.666000000000000000e+03
-7.888000000000000000e+03
-3.897000000000000000e+03
-1.675000000000000000e+03
-5.155000000000000000e+03
-8.818000000000000000e+03
-8.179000000000000000e+03
-3.983000000000000000e+03
-1.477000000000000000e+03
-5.052000000000000000e+03
-8.941000000000000000e+03
-8.416000000000000000e+03
-4.055000000000000000e+03
-1.472000000000000000e+03
-4.922000000000000000e+03
-8.661000000000000000e+03
-8.174000000000000000e+03
-3.872000000000000000e+03
-1.405000000000000000e+03
-4.852000000000000000e+03
-8.666000000000000000e+03
-8.134000000000000000e+03
-4.015000000000000000e+03
-1.593000000000000000e+03
-5.127000000000000000e+03
-8.965000000000000000e+03
-8.293000000000000000e+03
-4.169000000000000000e+03
-1.491000000000000000e+03
-4.829000000000000000e+03
-8.764000000000000000e+03
-8.510000000000000000e+03
-4.500000000000000000e+03
-1.772000000000000000e+03
-5.031000000000000000e+03
-8.909000000000000000e+03
-8.686000000000000000e+03
-4.618000000000000000e+03
-1.774000000000000000e+03
-4.937000000000000000e+03
-8.815000000000000000e+03
-8.671000000000000000e+03
-4.690000000000000000e+03
-1.779000000000000000e+03
-4.874000000000000000e+03
-8.891000000000000000e+03
-8.762000000000000000e+03
-4.649000000000000000e+03
-1.583000000000000000e+03
-4.620000000000000000e+03
-8.714000000000000000e+03
-8.724000000000000000e+03
-4.821000000000000000e+03
-1.689000000000000000e+03
-4.437000000000000000e+03
-8.487000000000000000e+03
-8.574000000000000000e+03
-4.782000000000000000e+03
-1.754000000000000000e+03
-4.646000000000000000e+03
-8.438000000000000000e+03
-8.569000000000000000e+03
-4.784000000000000000e+03
-1.503000000000000000e+03
-4.267000000000000000e+03
-8.599000000000000000e+03
-8.777000000000000000e+03
-4.989000000000000000e+03
-1.720000000000000000e+03
-4.525000000000000000e+03
-8.519000000000000000e+03
-8.681000000000000000e+03
-4.962000000000000000e+03
-1.789000000000000000e+03
-4.452000000000000000e+03
-8.489000000000000000e+03
-8.672000000000000000e+03
-4.898000000000000000e+03
-1.724000000000000000e+03
-4.331000000000000000e+03
-8.489000000000000000e+03
-8.880000000000000000e+03
-4.954000000000000000e+03
-1.614000000000000000e+03
-4.309000000000000000e+03
-8.613000000000000000e+03
-9.087000000000000000e+03
-5.362000000000000000e+03
-1.711000000000000000e+03
-4.236000000000000000e+03
-8.622000000000000000e+03
-8.866000000000000000e+03
-5.143000000000000000e+03
-1.727000000000000000e+03
-4.200000000000000000e+03
-8.711000000000000000e+03
-9.177000000000000000e+03
-5.030000000000000000e+03
-1.545000000000000000e+03
-3.968000000000000000e+03
-8.224000000000000000e+03
-8.877000000000000000e+03
-5.091000000000000000e+03
-1.549000000000000000e+03
-4.055000000000000000e+03
-8.300000000000000000e+03
-8.921000000000000000e+03
-5.433000000000000000e+03
-1.954000000000000000e+03
-4.051000000000000000e+03
-8.296000000000000000e+03
-8.933000000000000000e+03
-5.414000000000000000e+03
-1.734000000000000000e+03
-3.906000000000000000e+03
-8.386000000000000000e+03
-8.951000000000000000e+03
-5.366000000000000000e+03
-1.821000000000000000e+03
-3.983000000000000000e+03
-8.126000000000000000e+03
-8.848000000000000000e+03
-5.400000000000000000e+03
-1.729000000000000000e+03
-3.629000000000000000e+03
-8.169000000000000000e+03
-9.222000000000000000e+03
-5.860000000000000000e+03
-2.144000000000000000e+03
-4.215000000000000000e+03
-8.568000000000000000e+03
-9.447000000000000000e+03
-5.989000000000000000e+03
-1.862000000000000000e+03
-3.437000000000000000e+03
-7.651000000000000000e+03
-8.674000000000000000e+03
-5.516000000000000000e+03
-1.809000000000000000e+03
-3.309000000000000000e+03
-7.826000000000000000e+03
-9.171000000000000000e+03
-5.961000000000000000e+03
-2.200000000000000000e+03
-3.702000000000000000e+03
-8.042000000000000000e+03
-9.151000000000000000e+03
-5.957000000000000000e+03
-2.104000000000000000e+03
-3.629000000000000000e+03
-8.102000000000000000e+03
-9.462000000000000000e+03
-6.045000000000000000e+03
-2.161000000000000000e+03
-3.862000000000000000e+03
-8.204000000000000000e+03
-9.426000000000000000e+03
-6.139000000000000000e+03
-2.109000000000000000e+03
-3.751000000000000000e+03
-8.261000000000000000e+03
-9.453000000000000000e+03
-6.311000000000000000e+03
-2.344000000000000000e+03
-3.798000000000000000e+03
-8.219000000000000000e+03
-9.588000000000000000e+03
-6.469000000000000000e+03
-2.329000000000000000e+03
-3.614000000000000000e+03
-8.073000000000000000e+03
-9.519000000000000000e+03
-6.371000000000000000e+03
-2.361000000000000000e+03
-3.694000000000000000e+03
-8.039000000000000000e+03
-9.419000000000000000e+03
-6.246000000000000000e+03
-2.164000000000000000e+03
-3.379000000000000000e+03
-7.947000000000000000e+03
-9.652000000000000000e+03
-6.609000000000000000e+03
-2.269000000000000000e+03
-3.217000000000000000e+03
-7.854000000000000000e+03
-9.452000000000000000e+03
-6.503000000000000000e+03
-2.524000000000000000e+03
-3.664000000000000000e+03
-8.138000000000000000e+03
-9.730000000000000000e+03
-6.898000000000000000e+03
-2.631000000000000000e+03
-3.636000000000000000e+03
-8.038000000000000000e+03
-9.670000000000000000e+03
-6.941000000000000000e+03
-2.932000000000000000e+03
-3.698000000000000000e+03
-8.025000000000000000e+03
-9.835000000000000000e+03
-7.225000000000000000e+03
-2.867000000000000000e+03
-3.440000000000000000e+03
-8.171000000000000000e+03
-1.005400000000000000e+04
-7.457000000000000000e+03
-3.016000000000000000e+03
-3.567000000000000000e+03
-8.104000000000000000e+03
-1.005000000000000000e+04
-7.312000000000000000e+03
-3.033000000000000000e+03
-3.792000000000000000e+03
-8.081000000000000000e+03
-9.985000000000000000e+03
-7.486000000000000000e+03
-3.172000000000000000e+03
-3.626000000000000000e+03
-8.182000000000000000e+03
-1.017900000000000000e+04
-7.549000000000000000e+03
-2.996000000000000000e+03
-3.578000000000000000e+03
-8.374000000000000000e+03
-1.013100000000000000e+04
-7.231000000000000000e+03
-3.020000000000000000e+03
-3.130000000000000000e+03
-7.874000000000000000e+03
-1.008200000000000000e+04
-7.609000000000000000e+03
-3.203000000000000000e+03
-3.319000000000000000e+03
-8.040000000000000000e+03
-1.026100000000000000e+04
-7.642000000000000000e+03
-3.197000000000000000e+03
-3.654000000000000000e+03
-8.246000000000000000e+03
-1.054700000000000000e+04
-8.444000000000000000e+03
-3.731000000000000000e+03
-3.399000000000000000e+03
-8.091000000000000000e+03
-1.038700000000000000e+04
-7.985000000000000000e+03
-3.481000000000000000e+03
-3.461000000000000000e+03
-8.082000000000000000e+03
-1.057200000000000000e+04
-8.237000000000000000e+03
-3.646000000000000000e+03
-3.516000000000000000e+03
-8.119000000000000000e+03
-1.052700000000000000e+04
-8.296000000000000000e+03
-3.995000000000000000e+03
-3.646000000000000000e+03
-8.119000000000000000e+03
-1.050900000000000000e+04
-8.452000000000000000e+03
-3.885000000000000000e+03
-3.226000000000000000e+03
-7.835000000000000000e+03
-1.047800000000000000e+04
-8.449000000000000000e+03
-3.820000000000000000e+03
-3.534000000000000000e+03
-8.083000000000000000e+03
-1.063000000000000000e+04
-8.516000000000000000e+03
-4.052000000000000000e+03
-3.759000000000000000e+03
-8.379000000000000000e+03
-1.088700000000000000e+04
-8.558000000000000000e+03
-4.119000000000000000e+03
-3.211000000000000000e+03
-7.281000000000000000e+03
-9.948000000000000000e+03
-8.520000000000000000e+03
-4.784000000000000000e+03
-3.951000000000000000e+03
-7.995000000000000000e+03
-1.006000000000000000e+04
-6.644000000000000000e+03
-6.520000000000000000e+02
-1.135000000000000000e+03
-8.337000000000000000e+03
-1.215900000000000000e+04
-1.018200000000000000e+04
-5.452000000000000000e+03
-4.123000000000000000e+03
-7.442000000000000000e+03
-8.954000000000000000e+03
-6.094000000000000000e+03
1.321000000000000000e+03
5.128000000000000000e+03
-6.250000000000000000e+02
-6.126000000000000000e+03
-6.992000000000000000e+03
-1.834000000000000000e+03
-1.409000000000000000e+03
-6.300000000000000000e+03
-1.131700000000000000e+04
-1.142400000000000000e+04
-5.964000000000000000e+03
1.010000000000000000e+02
9.370000000000000000e+02
-2.830000000000000000e+02
-1.390000000000000000e+02
2.854000000000000000e+03
4.951000000000000000e+03
5.883000000000000000e+03
3.772000000000000000e+03
-3.767000000000000000e+03
-7.811000000000000000e+03
6.290000000000000000e+02
7.067000000000000000e+03
4.835000000000000000e+03
-5.336000000000000000e+03
-6.598000000000000000e+03
1.820000000000000000e+02
1.520000000000000000e+02
-3.170000000000000000e+02
-4.240000000000000000e+02
-2.100000000000000000e+01
6.119000000000000000e+03
2.928000000000000000e+03
-7.838000000000000000e+03
-4.511000000000000000e+03
8.685000000000000000e+03
5.439000000000000000e+03
-6.852000000000000000e+03
-3.921000000000000000e+03
3.111000000000000000e+03
2.317000000000000000e+03
4.943000000000000000e+03
5.423000000000000000e+03
4.400000000000000000e+01
8.119000000000000000e+03
7.861000000000000000e+03
-3.184000000000000000e+03
-5.530000000000000000e+03
-1.877000000000000000e+03
-1.111000000000000000e+03
4.678000000000000000e+03
4.574000000000000000e+03
-3.497000000000000000e+03
-6.135000000000000000e+03
6.196000000000000000e+03
1.515500000000000000e+04
1.105100000000000000e+04
7.460000000000000000e+02
-6.232000000000000000e+03
-5.390000000000000000e+02
1.090700000000000000e+04
1.184800000000000000e+04
1.234400000000000000e+04
8.720000000000000000e+02
-4.880000000000000000e+03
5.399000000000000000e+03
1.090500000000000000e+04
7.804000000000000000e+03
9.227000000000000000e+03
8.006000000000000000e+03
1.138100000000000000e+04
1.941400000000000000e+04
9.761000000000000000e+03
8.756000000000000000e+03
9.589000000000000000e+03
7.784000000000000000e+03
-1.360000000000000000e+02
-1.430000000000000000e+02
1.591000000000000000e+04
2.343000000000000000e+03
1.140000000000000000e+02
1.253500000000000000e+04
1.523600000000000000e+04
1.456000000000000000e+03
-1.042800000000000000e+04
7.112000000000000000e+03
1.643300000000000000e+04
1.734000000000000000e+03
3.044000000000000000e+03
1.109600000000000000e+04
-4.001000000000000000e+03
-1.223600000000000000e+04
-5.541000000000000000e+03
-6.980000000000000000e+03
-7.041000000000000000e+03
3.048000000000000000e+03
2.356000000000000000e+03
-9.012000000000000000e+03
-1.649500000000000000e+04
-1.606600000000000000e+04
-1.001800000000000000e+04
-7.390000000000000000e+02
-6.200000000000000000e+01
-4.145000000000000000e+03
-4.648000000000000000e+03
8.500000000000000000e+01
2.771000000000000000e+03
-1.164000000000000000e+03
-5.228000000000000000e+03
-4.006000000000000000e+03
2.790000000000000000e+02
2.992000000000000000e+03
-1.162000000000000000e+03
-6.111000000000000000e+03
-5.025000000000000000e+03
2.740000000000000000e+02
3.058000000000000000e+03
-2.128000000000000000e+03
-7.165000000000000000e+03
-6.424000000000000000e+03
-6.060000000000000000e+02
2.671000000000000000e+03
-1.560000000000000000e+03
-5.164000000000000000e+03
-3.776000000000000000e+03
4.040000000000000000e+02
1.154000000000000000e+03
-2.921000000000000000e+03
-7.175000000000000000e+03
-5.516000000000000000e+03
1.659000000000000000e+03
2.759000000000000000e+03
-4.195000000000000000e+03
-8.571000000000000000e+03
-8.280000000000000000e+03
-3.066000000000000000e+03
3.680000000000000000e+02
-2.941000000000000000e+03
-7.083000000000000000e+03
-6.820000000000000000e+03
-2.187000000000000000e+03
8.330000000000000000e+02
-3.147000000000000000e+03
-7.661000000000000000e+03
-7.404000000000000000e+03
-3.011000000000000000e+03
2.110000000000000000e+02
-3.382000000000000000e+03
-7.630000000000000000e+03
-7.687000000000000000e+03
-3.549000000000000000e+03
-2.170000000000000000e+02
-3.545000000000000000e+03
-8.081000000000000000e+03
-8.169000000000000000e+03
-4.175000000000000000e+03
-1.068000000000000000e+03
-4.123000000000000000e+03
-8.437000000000000000e+03
-8.288000000000000000e+03
-3.827000000000000000e+03
-4.870000000000000000e+02
-3.487000000000000000e+03
-8.147000000000000000e+03
-8.648000000000000000e+03
-4.828000000000000000e+03
-1.582000000000000000e+03
-4.806000000000000000e+03
-9.078000000000000000e+03
-9.214000000000000000e+03
-5.504000000000000000e+03
-2.310000000000000000e+03
-5.228000000000000000e+03
-9.606000000000000000e+03
-1.009800000000000000e+04
-6.163000000000000000e+03
-2.591000000000000000e+03
-5.552000000000000000e+03
-1.012800000000000000e+04
-1.071500000000000000e+04
-6.940000000000000000e+03
-2.997000000000000000e+03
-5.661000000000000000e+03
-1.007600000000000000e+04
-1.038700000000000000e+04
-6.610000000000000000e+03
-3.037000000000000000e+03
-5.764000000000000000e+03
-1.027600000000000000e+04
-1.088300000000000000e+04
-7.184000000000000000e+03
-3.614000000000000000e+03
-6.026000000000000000e+03
-1.048300000000000000e+04
-1.108700000000000000e+04
-7.269000000000000000e+03
-3.700000000000000000e+03
-6.243000000000000000e+03
-1.064200000000000000e+04
-1.132900000000000000e+04
-7.683000000000000000e+03
-3.906000000000000000e+03
-6.299000000000000000e+03
-1.080900000000000000e+04
-1.157400000000000000e+04
-7.951000000000000000e+03
-4.093000000000000000e+03
-6.377000000000000000e+03
-1.106500000000000000e+04
-1.182500000000000000e+04
-8.191000000000000000e+03
-4.210000000000000000e+03
-6.467000000000000000e+03
-1.108600000000000000e+04
-1.193300000000000000e+04
-8.369000000000000000e+03
-4.311000000000000000e+03
-6.636000000000000000e+03
-1.116400000000000000e+04
-1.195500000000000000e+04
-8.496000000000000000e+03
-4.437000000000000000e+03
-6.521000000000000000e+03
-1.122600000000000000e+04
-1.229100000000000000e+04
-8.771000000000000000e+03
-4.479000000000000000e+03
-6.531000000000000000e+03
-1.126400000000000000e+04
-1.231400000000000000e+04
-8.742000000000000000e+03
-4.762000000000000000e+03
-6.979000000000000000e+03
-1.146400000000000000e+04
-1.213900000000000000e+04
-8.710000000000000000e+03
-4.700000000000000000e+03
-6.791000000000000000e+03
-1.137600000000000000e+04
-1.243300000000000000e+04
-8.832000000000000000e+03
-4.666000000000000000e+03
-6.581000000000000000e+03
-1.141800000000000000e+04
-1.260300000000000000e+04
-9.009000000000000000e+03
-4.799000000000000000e+03
-6.534000000000000000e+03
-1.159000000000000000e+04
-1.303600000000000000e+04
-9.566000000000000000e+03
-5.211000000000000000e+03
-6.780000000000000000e+03
-1.166700000000000000e+04
-1.300700000000000000e+04
-9.593000000000000000e+03
-5.286000000000000000e+03
-6.976000000000000000e+03
-1.185500000000000000e+04
-1.335400000000000000e+04
-9.930000000000000000e+03
-5.371000000000000000e+03
-6.744000000000000000e+03
-1.148400000000000000e+04
-1.302000000000000000e+04
-9.818000000000000000e+03
-5.517000000000000000e+03
-6.975000000000000000e+03
-1.172600000000000000e+04
-1.310100000000000000e+04
-9.797000000000000000e+03
-5.634000000000000000e+03
-6.939000000000000000e+03
-1.158400000000000000e+04
-1.311900000000000000e+04
-9.945000000000000000e+03
-5.492000000000000000e+03
-6.752000000000000000e+03
-1.154900000000000000e+04
-1.311400000000000000e+04
-1.001400000000000000e+04
-5.691000000000000000e+03
-6.749000000000000000e+03
-1.151100000000000000e+04
-1.316300000000000000e+04
-1.006700000000000000e+04
-5.626000000000000000e+03
-6.680000000000000000e+03
-1.144400000000000000e+04
-1.300900000000000000e+04
-9.911000000000000000e+03
-5.610000000000000000e+03
-6.784000000000000000e+03
-1.132400000000000000e+04
-1.301300000000000000e+04
-1.010600000000000000e+04
-5.404000000000000000e+03
-6.324000000000000000e+03
-1.121500000000000000e+04
-1.304700000000000000e+04
-1.017900000000000000e+04
-5.751000000000000000e+03
-6.479000000000000000e+03
-1.117700000000000000e+04
-1.294200000000000000e+04
-1.019400000000000000e+04
-5.745000000000000000e+03
-6.309000000000000000e+03
-1.098600000000000000e+04
-1.292100000000000000e+04
-1.013200000000000000e+04
-5.688000000000000000e+03
-6.343000000000000000e+03
-1.109200000000000000e+04
-1.319200000000000000e+04
-1.057600000000000000e+04
-6.059000000000000000e+03
-6.652000000000000000e+03
-1.128600000000000000e+04
-1.311300000000000000e+04
-1.036300000000000000e+04
-5.584000000000000000e+03
-5.766000000000000000e+03
-1.038600000000000000e+04
-1.262100000000000000e+04
-1.020900000000000000e+04
-6.109000000000000000e+03
-6.611000000000000000e+03
-1.106000000000000000e+04
-1.294900000000000000e+04
-1.041100000000000000e+04
-6.006000000000000000e+03
-6.185000000000000000e+03
-1.070200000000000000e+04
-1.284400000000000000e+04
-1.034200000000000000e+04
-5.945000000000000000e+03
-6.026000000000000000e+03
-1.042800000000000000e+04
-1.252700000000000000e+04
-1.022400000000000000e+04
-5.826000000000000000e+03
-5.956000000000000000e+03
-1.060900000000000000e+04
-1.284400000000000000e+04
-1.031700000000000000e+04
-5.803000000000000000e+03
-5.912000000000000000e+03
-1.056900000000000000e+04
-1.276900000000000000e+04
-1.044900000000000000e+04
-5.887000000000000000e+03
-5.692000000000000000e+03
-1.029900000000000000e+04
-1.269200000000000000e+04
-1.041100000000000000e+04
-5.777000000000000000e+03
-5.521000000000000000e+03
-1.021100000000000000e+04
-1.272200000000000000e+04
-1.058500000000000000e+04
-6.141000000000000000e+03
-5.684000000000000000e+03
-1.011000000000000000e+04
-1.275600000000000000e+04
-1.051200000000000000e+04
-6.036000000000000000e+03
-5.697000000000000000e+03
-1.027600000000000000e+04
-1.277200000000000000e+04
-1.043600000000000000e+04
-5.989000000000000000e+03
-5.363000000000000000e+03
-9.907000000000000000e+03
-1.267200000000000000e+04
-1.063200000000000000e+04
-6.082000000000000000e+03
-5.486000000000000000e+03
-9.929000000000000000e+03
-1.270300000000000000e+04
-1.078400000000000000e+04
-6.217000000000000000e+03
-5.399000000000000000e+03
-9.821000000000000000e+03
-1.243900000000000000e+04
-1.052200000000000000e+04
-6.031000000000000000e+03
-5.271000000000000000e+03
-9.632000000000000000e+03
-1.229600000000000000e+04
-1.041600000000000000e+04
-6.016000000000000000e+03
-5.222000000000000000e+03
-9.609000000000000000e+03
-1.239600000000000000e+04
-1.063600000000000000e+04
-6.037000000000000000e+03
-4.972000000000000000e+03
-9.557000000000000000e+03
-1.248300000000000000e+04
-1.059400000000000000e+04
-6.141000000000000000e+03
-4.931000000000000000e+03
-9.242000000000000000e+03
-1.223900000000000000e+04
-1.056400000000000000e+04
-6.018000000000000000e+03
-4.831000000000000000e+03
-9.371000000000000000e+03
-1.239200000000000000e+04
-1.056400000000000000e+04
-5.983000000000000000e+03
-4.686000000000000000e+03
-8.929000000000000000e+03
-1.203000000000000000e+04
-1.051900000000000000e+04
-6.002000000000000000e+03
-4.792000000000000000e+03
-8.879000000000000000e+03
-1.180700000000000000e+04
-1.037400000000000000e+04
-6.091000000000000000e+03
-4.724000000000000000e+03
-8.919000000000000000e+03
-1.199200000000000000e+04
-1.073500000000000000e+04
-6.273000000000000000e+03
-4.772000000000000000e+03
-8.893000000000000000e+03
-1.235400000000000000e+04
-1.108200000000000000e+04
-6.446000000000000000e+03
-4.669000000000000000e+03
-8.889000000000000000e+03
-1.212900000000000000e+04
-1.080700000000000000e+04
-6.302000000000000000e+03
-4.641000000000000000e+03
-8.952000000000000000e+03
-1.233200000000000000e+04
-1.099700000000000000e+04
-6.380000000000000000e+03
-4.631000000000000000e+03
-8.732000000000000000e+03
-1.210000000000000000e+04
-1.089800000000000000e+04
-6.547000000000000000e+03
-4.719000000000000000e+03
-8.752000000000000000e+03
-1.209300000000000000e+04
-1.082700000000000000e+04
-6.418000000000000000e+03
-4.674000000000000000e+03
-8.664000000000000000e+03
-1.209000000000000000e+04
-1.104600000000000000e+04
-6.474000000000000000e+03
-4.448000000000000000e+03
-8.611000000000000000e+03
-1.221700000000000000e+04
-1.102700000000000000e+04
-6.519000000000000000e+03
-4.614000000000000000e+03
-8.717000000000000000e+03
-1.229300000000000000e+04
-1.121500000000000000e+04
-6.812000000000000000e+03
-4.716000000000000000e+03
-8.361000000000000000e+03
-1.194500000000000000e+04
-1.110900000000000000e+04
-6.722000000000000000e+03
-4.592000000000000000e+03
-8.571000000000000000e+03
-1.228700000000000000e+04
-1.161600000000000000e+04
-7.406000000000000000e+03
-5.134000000000000000e+03
-8.923000000000000000e+03
-1.256000000000000000e+04
-1.166000000000000000e+04
-7.084000000000000000e+03
-4.200000000000000000e+03
-7.836000000000000000e+03
-1.184400000000000000e+04
-1.122600000000000000e+04
-7.053000000000000000e+03
-4.689000000000000000e+03
-8.506000000000000000e+03
-1.221400000000000000e+04
-1.159400000000000000e+04
-7.401000000000000000e+03
-4.774000000000000000e+03
-8.446000000000000000e+03
-1.237700000000000000e+04
-1.156200000000000000e+04
-7.262000000000000000e+03
-4.890000000000000000e+03
-8.597000000000000000e+03
-1.247100000000000000e+04
-1.145600000000000000e+04
-7.178000000000000000e+03
-4.758000000000000000e+03
-8.339000000000000000e+03
-1.216400000000000000e+04
-1.168000000000000000e+04
-7.427000000000000000e+03
-4.641000000000000000e+03
-8.042000000000000000e+03
-1.216700000000000000e+04
-1.197000000000000000e+04
-7.603000000000000000e+03
-4.707000000000000000e+03
-8.119000000000000000e+03
-1.186200000000000000e+04
-1.147300000000000000e+04
-7.563000000000000000e+03
-4.734000000000000000e+03
-8.171000000000000000e+03
-1.210200000000000000e+04
-1.163700000000000000e+04
-7.559000000000000000e+03
-4.704000000000000000e+03
-8.104000000000000000e+03
-1.212400000000000000e+04
-1.207600000000000000e+04
-8.026000000000000000e+03
-4.607000000000000000e+03
-7.881000000000000000e+03
-1.217000000000000000e+04
-1.197000000000000000e+04
-7.882000000000000000e+03
-4.754000000000000000e+03
-8.095000000000000000e+03
-1.226600000000000000e+04
-1.234700000000000000e+04
-8.294000000000000000e+03
-4.911000000000000000e+03
-7.901000000000000000e+03
-1.193300000000000000e+04
-1.209900000000000000e+04
-8.211000000000000000e+03
-5.153000000000000000e+03
-8.138000000000000000e+03
-1.218700000000000000e+04
-1.220900000000000000e+04
-8.325000000000000000e+03
-5.083000000000000000e+03
-8.080000000000000000e+03
-1.215300000000000000e+04
-1.212400000000000000e+04
-8.278000000000000000e+03
-4.940000000000000000e+03
-7.786000000000000000e+03
-1.201600000000000000e+04
-1.228500000000000000e+04
-8.302000000000000000e+03
-4.618000000000000000e+03
-7.702000000000000000e+03
-1.206200000000000000e+04
-1.218200000000000000e+04
-8.552000000000000000e+03
-5.179000000000000000e+03
-7.857000000000000000e+03
-1.206900000000000000e+04
-1.245500000000000000e+04
-8.744000000000000000e+03
-5.214000000000000000e+03
-7.953000000000000000e+03
-1.227900000000000000e+04
-1.262400000000000000e+04
-8.743000000000000000e+03
-4.997000000000000000e+03
-7.751000000000000000e+03
-1.219200000000000000e+04
-1.262200000000000000e+04
-9.011000000000000000e+03
-5.322000000000000000e+03
-7.724000000000000000e+03
-1.209400000000000000e+04
-1.248700000000000000e+04
-8.702000000000000000e+03
-5.232000000000000000e+03
-7.975000000000000000e+03
-1.247900000000000000e+04
-1.313100000000000000e+04
-9.247000000000000000e+03
-5.409000000000000000e+03
-8.042000000000000000e+03
-1.227800000000000000e+04
-1.280900000000000000e+04
-9.016000000000000000e+03
-5.347000000000000000e+03
-7.716000000000000000e+03
-1.216400000000000000e+04
-1.275500000000000000e+04
-9.276000000000000000e+03
-5.499000000000000000e+03
-7.718000000000000000e+03
-1.219900000000000000e+04
-1.308500000000000000e+04
-9.417000000000000000e+03
-5.343000000000000000e+03
-7.194000000000000000e+03
-1.202200000000000000e+04
-1.307700000000000000e+04
-9.479000000000000000e+03
-5.264000000000000000e+03
-7.154000000000000000e+03
-1.187300000000000000e+04
-1.334700000000000000e+04
-9.889000000000000000e+03
-6.172000000000000000e+03
-8.054000000000000000e+03
-1.243600000000000000e+04
-1.216100000000000000e+04
-9.259000000000000000e+03
-6.224000000000000000e+03
-8.033000000000000000e+03
-1.262700000000000000e+04
-1.363100000000000000e+04
-9.942000000000000000e+03
-5.782000000000000000e+03
-7.719000000000000000e+03
-1.233200000000000000e+04
-1.280000000000000000e+04
-9.166000000000000000e+03
-5.481000000000000000e+03
-8.152000000000000000e+03
-1.297600000000000000e+04
-1.378600000000000000e+04
-1.019600000000000000e+04
-6.094000000000000000e+03
-7.974000000000000000e+03
-1.256100000000000000e+04
-1.357200000000000000e+04
-1.022500000000000000e+04
-6.296000000000000000e+03
-7.688000000000000000e+03
-1.165700000000000000e+04
-1.298700000000000000e+04
-1.031200000000000000e+04
-6.488000000000000000e+03
-7.631000000000000000e+03
-1.227200000000000000e+04
-1.343300000000000000e+04
-9.004000000000000000e+03
-4.677000000000000000e+03
-7.088000000000000000e+03
-1.286000000000000000e+04
-1.419900000000000000e+04
-1.084500000000000000e+04
-5.421000000000000000e+03
-6.049000000000000000e+03
-1.145800000000000000e+04
-1.387400000000000000e+04
-1.101300000000000000e+04
-6.656000000000000000e+03
-8.043000000000000000e+03
-1.262200000000000000e+04
-1.392700000000000000e+04
-1.063700000000000000e+04
-6.606000000000000000e+03
-7.545000000000000000e+03
-1.133800000000000000e+04
-1.281600000000000000e+04
-1.055700000000000000e+04
-6.229000000000000000e+03
-6.801000000000000000e+03
-1.083900000000000000e+04
-1.232300000000000000e+04
-8.201000000000000000e+03
-3.954000000000000000e+03
-6.622000000000000000e+03
-1.295000000000000000e+04
-1.392500000000000000e+04
-8.479000000000000000e+03
-3.846000000000000000e+03
-6.221000000000000000e+03
-1.179900000000000000e+04
-1.093000000000000000e+04
-8.157000000000000000e+03
-5.822000000000000000e+03
-8.796000000000000000e+03
-1.318600000000000000e+04
-1.410400000000000000e+04
-1.001200000000000000e+04
-5.367000000000000000e+03
-6.881000000000000000e+03
-1.141500000000000000e+04
-1.111100000000000000e+04
-6.690000000000000000e+03
-1.769000000000000000e+03
-2.341000000000000000e+03
-8.284000000000000000e+03
-1.369900000000000000e+04
-1.170800000000000000e+04
-6.049000000000000000e+03
-6.751000000000000000e+03
-1.227700000000000000e+04
-1.442600000000000000e+04
-1.131800000000000000e+04
-6.474000000000000000e+03
-6.519000000000000000e+03
-1.113500000000000000e+04
-1.306300000000000000e+04
-9.149000000000000000e+03
-1.569000000000000000e+03
2.006000000000000000e+03
-2.133000000000000000e+03
-8.553000000000000000e+03
-8.496000000000000000e+03
-2.130000000000000000e+03
1.700000000000000000e+02
-4.482000000000000000e+03
-7.448000000000000000e+03
-5.863000000000000000e+03
-5.247000000000000000e+03
-8.092000000000000000e+03
-1.182200000000000000e+04
-8.552000000000000000e+03
1.610000000000000000e+02
-1.700000000000000000e+01
-6.259000000000000000e+03
-9.739000000000000000e+03
-6.877000000000000000e+03
-4.356000000000000000e+03
-3.649000000000000000e+03
-8.061000000000000000e+03
-1.084100000000000000e+04
-8.361000000000000000e+03
-4.859000000000000000e+03
-2.262000000000000000e+03
4.112000000000000000e+03
7.074000000000000000e+03
-6.591000000000000000e+03
-1.749400000000000000e+04
-1.331900000000000000e+04
-5.562000000000000000e+03
-6.179000000000000000e+03
-9.870000000000000000e+03
-7.247000000000000000e+03
-2.594000000000000000e+03
5.630000000000000000e+02
2.894000000000000000e+03
2.513000000000000000e+03
2.148000000000000000e+03
2.778000000000000000e+03
-5.908000000000000000e+03
-1.493400000000000000e+04
-1.156000000000000000e+03
1.036800000000000000e+04
-8.240000000000000000e+02
-1.000800000000000000e+04
-9.783000000000000000e+03
-8.572000000000000000e+03
-8.327000000000000000e+03
8.377000000000000000e+03
1.061700000000000000e+04
-7.972000000000000000e+03
-6.284000000000000000e+03
6.314000000000000000e+03
9.288000000000000000e+03
5.138000000000000000e+03
3.219000000000000000e+03
-3.527000000000000000e+03
-7.793000000000000000e+03
4.041000000000000000e+03
1.066800000000000000e+04
3.529000000000000000e+03
8.365000000000000000e+03
6.172000000000000000e+03
7.305000000000000000e+03
5.074000000000000000e+03
1.548000000000000000e+03
5.932000000000000000e+03
7.741000000000000000e+03
1.210400000000000000e+04
8.106000000000000000e+03
-5.611000000000000000e+03
-3.869000000000000000e+03
7.290000000000000000e+02
4.910000000000000000e+03
6.941000000000000000e+03
-7.648000000000000000e+03
-3.197000000000000000e+03
1.153200000000000000e+04
-8.820000000000000000e+02
9.368000000000000000e+03
8.955000000000000000e+03
-1.886400000000000000e+04
-1.373000000000000000e+03
3.691000000000000000e+03
-1.172200000000000000e+04
-1.149700000000000000e+04
-1.344900000000000000e+04
-3.210000000000000000e+02
3.456000000000000000e+03
-1.052000000000000000e+04
-1.850100000000000000e+04
-2.359400000000000000e+04
-1.665200000000000000e+04
-7.771000000000000000e+03
-1.954000000000000000e+03
-4.144000000000000000e+03
-8.317000000000000000e+03
-6.914000000000000000e+03
-1.399000000000000000e+03
3.040000000000000000e+02
-4.450000000000000000e+03
-7.755000000000000000e+03
-5.594000000000000000e+03
-9.380000000000000000e+02
1.770000000000000000e+02
-4.634000000000000000e+03
-8.044000000000000000e+03
-6.886000000000000000e+03
-1.657000000000000000e+03
-1.007000000000000000e+03
-5.661000000000000000e+03
-9.604000000000000000e+03
-8.100000000000000000e+03
-1.990000000000000000e+03
-3.240000000000000000e+02
-5.096000000000000000e+03
-9.009000000000000000e+03
-6.756000000000000000e+03
9.660000000000000000e+02
7.240000000000000000e+02
-7.029000000000000000e+03
-1.082600000000000000e+04
-9.669000000000000000e+03
-5.367000000000000000e+03
-2.772000000000000000e+03
-6.420000000000000000e+03
-1.108600000000000000e+04
-9.309000000000000000e+03
-3.371000000000000000e+03
-2.356000000000000000e+03
-7.591000000000000000e+03
-1.099600000000000000e+04
-9.907000000000000000e+03
-5.256000000000000000e+03
-3.677000000000000000e+03
-7.748000000000000000e+03
-1.111700000000000000e+04
-1.002100000000000000e+04
-5.560000000000000000e+03
-3.482000000000000000e+03
-7.671000000000000000e+03
-1.139500000000000000e+04
-1.051900000000000000e+04
-5.944000000000000000e+03
-3.933000000000000000e+03
-8.149000000000000000e+03
-1.180600000000000000e+04
-9.569000000000000000e+03
-4.760000000000000000e+03
-4.953000000000000000e+03
-9.001000000000000000e+03
-1.209000000000000000e+04
-1.127600000000000000e+04
-6.579000000000000000e+03
-4.172000000000000000e+03
-8.822000000000000000e+03
-1.256200000000000000e+04
-1.155900000000000000e+04
-7.102000000000000000e+03
-4.896000000000000000e+03
-8.957000000000000000e+03
-1.275300000000000000e+04
-1.225900000000000000e+04
