-1.459540633259792114e+06
-1.303707491473126691e+06
-1.177852126718632411e+06
-1.100630908975719940e+06
-1.114893355012017069e+06
-1.172895279499967350e+06
-1.185929624816802097e+06
-1.143970705387556227e+06
-1.163127354107136838e+06
-1.094075139271852328e+06
-1.086419630729173776e+06
-1.081935750556797255e+06
-1.082896189483918948e+06
-1.013665853276727954e+06
-9.774418791987812147e+05
-9.039008690366282826e+05
-8.473046115742851980e+05
-7.466015095420541475e+05
-7.214285622501266189e+05
-6.776993941498083295e+05
-2.810489743363682646e+05
-2.598162670169991907e+05
-2.827672464549582219e+05
-2.688665717310928740e+05
-2.832218173057566164e+05
-2.363455277279242873e+05
-2.354599662353389431e+05
-2.488246691979157040e+05
-3.269119604606301291e+05
-2.995699545219755964e+05
-1.496467338942647912e+05
2.791639750396345044e+05
4.201960568471773295e+05
3.865747079905490391e+05
2.829663364978880854e+05
2.165958773517801892e+05
-1.777171135510618333e+05
-4.898311390945606399e+05
-5.690464342622961849e+05
-5.437184829730093479e+05
-2.076567293307930231e+05
-1.996652901284922846e+05
-2.333874578577959910e+05
-2.443639668235299177e+05
-2.736174905096981674e+05
-2.445773726511816494e+05
-2.517122041471169796e+05
-2.862733913693118375e+05
-3.852838955304669216e+05
-3.839614107742089545e+05
-4.348837398564848118e+05
-4.894793669280662434e+05
-5.284695657696877606e+05
-5.146759504528467078e+05
-5.266774281794630224e+05
-5.066761624547040556e+05
-4.969140672240918502e+05
-4.489930264016962610e+05
-4.606277973821904743e+05
-4.684021765230842866e+05
-2.328044538120096549e+05
-2.518641535061126342e+05
-3.033894182207083795e+05
-3.447883584324697731e+05
-3.871223204163312912e+05
-3.175079962679939345e+05
-2.534888684668862261e+05
2.012212553662084974e+04
4.330623634714311920e+05
3.506605752737756120e+05
1.304949030602974817e+05
3.697785828934749588e+03
-7.625767471223638859e+04
-1.142215973665993661e+05
-1.758975726304424461e+05
-2.113206655011280673e+05
-2.365439363461693283e+05
-2.081052985317549901e+05
-2.369596171969868010e+05
-2.681902374663732480e+05
-1.360424099223081721e+05
-1.707145987096176250e+05
-2.156474808426646050e+05
-1.466203804968436016e+05
-1.158460294120295439e+05
-1.614466047929584747e+05
-3.411527629373354139e+05
-4.195450180207054364e+05
-5.171000666248308262e+05
-5.215038816706577782e+05
-5.605631547143387143e+05
-6.064229461178071797e+05
-6.068163244098387659e+05
-5.861226973016101401e+05
-5.870022225330886431e+05
-5.754677153844947461e+05
-4.229507998757155146e+05
-3.849887548506595194e+05
-4.867732650540542090e+05
-4.942923254543533549e+05
-3.991624214916867204e+05
-3.952345936382332584e+05
-4.043034354562549852e+05
-4.332368001265792409e+05
-4.482897277870007092e+05
-4.156340246129923034e+05
-3.886498285548114218e+05
-4.169613485562889837e+05
-4.822586335505450843e+05
-4.690157203912257683e+05
-4.798615137956030667e+05
-4.897487739784209989e+05
-4.606355135222857352e+05
-4.373964824800610077e+05
-4.331945265456510242e+05
-4.116893483241202775e+05
-3.733084891187655739e+05
-3.317026984096678207e+05
-3.092959278116363566e+05
-2.991560003473733086e+05
-2.665932045514201745e+05
-2.608304954684418626e+05
-2.586341685569910333e+05
-2.856853226305192802e+05
-2.961405873987250961e+05
-2.672018312390802894e+05
-2.404601647939548129e+05
-2.745413073094738647e+05
-3.285713172917469637e+05
-2.560226183711955091e+05
-9.275220438271109015e+04
-1.978036522110297810e+05
-3.091948849197770469e+05
-3.107935182238691486e+05
-3.159041737850254867e+05
-3.175242050108865369e+05
-3.153223599435121287e+05
-2.990817845935078803e+05
-2.156101873420751654e+05
-1.880498120333516272e+05
-2.580650445925334934e+05
-2.545002931779581122e+05
-2.246914917226289399e+05
-9.599060292733518872e+04
-5.979835415677994024e+04
-2.067126746648247354e+05
-2.787220033073278610e+05
-3.179902274825003697e+05
-3.621786032971346285e+05
-3.551721717093044426e+05
-3.277951452895067632e+05
-2.030002556841389742e+05
-2.602004579624633770e+05
-3.186403119904743508e+05
-3.374398288364247419e+05
-3.410497465238524601e+05
-3.082859342818674631e+05
-2.957581568638198078e+05
-2.948780413833888015e+05
-3.013716053958968259e+05
-3.484967929305161815e+05
-3.520610185074051842e+05
-3.484457658174019307e+05
-3.813518200407817494e+05
-4.048289279450187460e+05
-3.867658458377337083e+05
-3.590443324800295522e+05
-3.828729144283439964e+05
-4.126558645719601773e+05
-3.992674757531203795e+05
-3.946832605580503587e+05
-3.820559542800741037e+05
-3.432041590707314899e+05
-3.624143575273882598e+05
-3.825735991193195805e+05
-3.899191461820164695e+05
-3.553645968066763598e+05
-3.509146840887654107e+05
-3.525071968908892013e+05
-3.505214373049573041e+05
-3.933804164548020344e+05
-3.967327487193761626e+05
-3.959882066184659488e+05
-4.176648080657526152e+05
-4.243790468792124884e+05
-4.009863513796520419e+05
-3.734467953196852468e+05
-3.913653122277171351e+05
-4.245666396166367922e+05
-4.091064377714090515e+05
-3.962488250940293074e+05
-3.825681556633790024e+05
-3.347381323537630960e+05
-2.747993444278915413e+05
-1.527809651613883907e+05
-2.084965321793134790e+05
-3.528972546647107229e+05
-3.770523650567739969e+05
-3.862689693452690262e+05
-3.809428742305911146e+05
-4.028586821528115543e+05
-4.029923488419858040e+05
-3.925958762076811399e+05
-3.918931009028899716e+05
-3.965047714788401499e+05
-3.768318496999085182e+05
-3.458300557390497997e+05
-2.359784027208588086e+05
-1.343289039661475690e+05
-2.498866183165560942e+05
-3.702202253798610764e+05
-3.782042607417042600e+05
-3.424747263993024826e+05
-3.330249217829932459e+05
-3.263983852288373746e+05
-2.187145995748548303e+05
-2.769973338527232409e+05
-3.309159621982966783e+05
-3.409162243664234411e+05
-3.346073525599881541e+05
-3.461291833411152475e+05
-3.474521462092481088e+05
-3.327392250434631715e+05
-3.457366238332729554e+05
-3.555026350843897089e+05
-3.364731418890212663e+05
-3.152130415622377768e+05
-3.243149538560619112e+05
-3.530122720199248288e+05
-3.349969510682669934e+05
-3.143551956415453460e+05
-3.122690503249532776e+05
-2.943537473865142092e+05
-2.897852214208760997e+05
-3.072556521790761035e+05
-2.945314747530240566e+05
-2.831095314723709598e+05
-3.036225264117764309e+05
-3.435342326254487270e+05
-3.781993883974215714e+05
-3.459918604247282492e+05
-2.737051089847940020e+05
-3.233549965184027096e+05
-3.412003168794610538e+05
-3.449189011682274286e+05
-3.335652959752010647e+05
-3.172771359845378902e+05
-3.248894504784783348e+05
-3.543977054518174846e+05
-3.383191974279716378e+05
-3.196089975968230283e+05
-3.238289520690770587e+05
-3.175193608823937830e+05
-3.116891884132921696e+05
-3.328065866142744198e+05
-3.541500904601463117e+05
-3.260411465496697929e+05
-2.725913685290379217e+05
-1.947522660544118844e+05
-1.429669523123493418e+05
-2.810885135966680245e+05
-3.653974477792847902e+05
-3.897964924730302300e+05
-3.971027522870323155e+05
-4.008015857091036160e+05
-3.885792003320171498e+05
-3.765650661566539202e+05
-3.708741411078199744e+05
-2.399743955780991819e+05
-2.343191362648182549e+05
-2.712048526285693515e+05
-3.064472016183295054e+05
-3.812122565244786674e+05
-3.707779753188479226e+05
-3.798332950355999637e+05
-3.987823838617373258e+05
-3.767170040947697125e+05
-3.792966942647943506e+05
-3.839984161510019330e+05
-3.844944633324005408e+05
-3.632418074422009522e+05
-3.687415215926945675e+05
-3.809180697401774814e+05
-3.744047988595722709e+05
-2.521734553761595162e+05
-2.599306392353740521e+05
-3.552367379249813966e+05
-3.664820164586144965e+05
-3.833728637293349020e+05
-3.732720828037578613e+05
-3.573850564082493074e+05
-3.741362652761702193e+05
-3.711508581335030030e+05
-3.450413276891161222e+05
-3.460425535333862063e+05
-3.625424725704733282e+05
-3.510647012670494150e+05
-3.525552285751162563e+05
-3.618429959198434372e+05
-3.682571649153270992e+05
-3.664877019421535078e+05
-3.657829306133470964e+05
-3.706061053142163437e+05
-3.667843649328745669e+05
-3.674958366808358114e+05
-3.564556940235630609e+05
-3.492130072352285497e+05
-3.490771161960375030e+05
-3.539065787072108360e+05
-3.386884361459871288e+05
-3.249627566797717009e+05
-3.479029686028237920e+05
-3.524871228039505659e+05
-3.268349519384674495e+05
-3.204470429994630395e+05
-3.295388487752729561e+05
-3.268831872864726465e+05
-3.303925939421908697e+05
-3.360021874887347221e+05
-3.505501027549051214e+05
-3.440987940742509672e+05
-2.745274151694278698e+05
-1.245624489996049087e+05
-2.253601282059211517e+05
-3.691951412492314121e+05
-3.703841780102022458e+05
-3.684082277154348558e+05
-3.694667638744593132e+05
-3.638552573602236807e+05
-3.544261826982102357e+05
-3.229103234398402274e+05
-1.845445136920018122e+05
-1.485664082257805858e+05
-3.140744182792445645e+05
-3.670345226484965533e+05
-3.704309747457610210e+05
-3.699433875756687485e+05
-3.709400611777264858e+05
-3.779142309268570971e+05
-3.944218517284870613e+05
-4.029290368861374445e+05
-4.174735451736672549e+05
-4.220332385431636358e+05
-2.483234463475849479e+05
-2.221351857856082497e+05
-3.427653919069718104e+05
-3.795137402340171393e+05
-3.775069387826886959e+05
-3.586587649867767468e+05
-3.545390976194350515e+05
-3.577411042307283496e+05
-3.799173087033391930e+05
-3.768423730853127781e+05
-3.480298392087179236e+05
-3.277995016167846043e+05
-3.276012607366926968e+05
-3.403743886921600206e+05
-3.455738811610986013e+05
-3.478122564948908985e+05
-3.677898521119444631e+05
-3.730631202859521145e+05
-3.595983344873564783e+05
-3.649166690752358409e+05
-3.678403545366993640e+05
-3.481338965324156452e+05
-3.350814731592398603e+05
-3.500537149077937938e+05
-3.524358492381180404e+05
-3.412567276327363215e+05
-3.521566787908709375e+05
-3.584089723071206827e+05
-3.791376595283804927e+05
-3.752710131390662864e+05
-3.421320005216588033e+05
-3.226549192995787598e+05
-3.172919741943685804e+05
-3.246541449061939493e+05
-3.216273363282280043e+05
-3.238808793980933260e+05
-3.505804887099288171e+05
-3.634781691103763878e+05
-3.389523309112744173e+05
-3.362424068208511453e+05
-3.472219958421469200e+05
-3.372969063683492132e+05
-2.706303946493925760e+05
-1.572308010814450681e+05
-1.543008007017616183e+05
-3.198601931667868048e+05
-3.691081838831674540e+05
-3.827565130269837100e+05
-4.018677012174066622e+05
-3.901091585941666272e+05
-3.768174703247409780e+05
-3.565552154172677547e+05
-3.445031506465047132e+05
-3.488942339737305883e+05
-3.461457989849405130e+05
-3.440714716603679117e+05
-2.722388534391185967e+05
-1.643043284944582265e+05
-2.497499825751043390e+05
-3.760157243848107755e+05
-4.064522399493642151e+05
-3.993632463209732668e+05
-3.755483667759820819e+05
-3.821295626426145900e+05
-3.766442597189251101e+05
-3.512424079307431821e+05
-3.614958566862125881e+05
-3.712615981850076932e+05
-3.750059480425613001e+05
-3.598240987602375681e+05
-3.515150434326489922e+05
-3.458098939836326754e+05
-3.471953346607093699e+05
-3.484647212710359599e+05
-3.353628885660599917e+05
-3.342440203886412783e+05
-3.711612288077827543e+05
-4.000411504272390157e+05
-3.623328384102527052e+05
-3.402810111333946697e+05
-3.370764599056763109e+05
-3.227152908853897825e+05
-3.206817809756575152e+05
-3.493374740702629788e+05
-3.508777287746674847e+05
-3.271343650923563400e+05
-3.368718971683669370e+05
-3.441680215906728990e+05
-3.506440834698209073e+05
-3.463572603081178386e+05
-3.549106482216801960e+05
-3.527174315420817584e+05
-3.353709129703894723e+05
-3.407801334943303373e+05
-3.309528652239891235e+05
-3.169445585691684391e+05
-2.084548330680127256e+05
-2.592308830332183279e+05
-3.456543230165198911e+05
-3.453035211089143995e+05
-3.502917881957653444e+05
-3.648528051262153313e+05
-3.429044194293187466e+05
-3.339336828350359574e+05
-3.953081860443798359e+05
-3.685265733094923198e+05
-3.100337884836269077e+05
-2.209029161377474666e+05
-1.625898063907328760e+05
-3.067916253130771220e+05
-3.941843303242193069e+05
-4.317771106731443433e+05
-4.276251284165491816e+05
-4.072443135728627676e+05
-4.029381525134907570e+05
-3.977440000997984316e+05
-3.923226676183410455e+05
-3.966810667349296855e+05
-3.759131096920657437e+05
-3.767837631183906924e+05
-3.623466500807312550e+05
-3.409196148828079458e+05
-3.552519375874183606e+05
-3.600729092177810380e+05
-3.391994512298780028e+05
-3.287499272749312222e+05
-3.447804096770789474e+05
-3.564123246207248885e+05
-3.547439387763662962e+05
-3.096290652415712830e+05
-1.779763924115179107e+05
-2.468893828201054130e+05
-2.687217992007981520e+05
-3.051019281414716970e+05
-3.530767730159487110e+05
-3.656664779616766609e+05
-4.020593050169058843e+05
-3.986112868464859203e+05
-3.600957283300801646e+05
-3.430551786716000643e+05
-3.346808988018694799e+05
-3.229578072671914706e+05
-3.250544875673088245e+05
-3.417568503075963818e+05
-3.490266860572014702e+05
-3.362628893221660983e+05
-2.201572794026613701e+05
-3.247571946621035459e+05
-3.888560702978847548e+05
-3.609425174783684779e+05
-3.808944784377457108e+05
-3.936686269555179169e+05
-3.709730659575047903e+05
-3.541241175097831292e+05
-3.460154557931208983e+05
-3.549788691236824961e+05
-3.713667794092813274e+05
-3.632904123523387825e+05
-3.427141072344467975e+05
-3.284454735384571832e+05
-3.182230731485888828e+05
-3.162046928654735675e+05
-3.321692077357191592e+05
-3.462762338803259190e+05
-3.516639349398185732e+05
-3.597005741015886888e+05
-3.697697252960824408e+05
-3.717004785961168818e+05
-3.541758357779723592e+05
-3.360134207986537367e+05
-2.945228648524559103e+05
-1.495280747033589287e+05
-2.180035407819227548e+05
-3.427264302245132858e+05
-3.511160360250155209e+05
-3.640487295054830611e+05
-3.836818192127442453e+05
-3.674983763202331029e+05
-3.542417947449617786e+05
-3.444377045880893711e+05
-3.361304794903486036e+05
-3.419212416408373974e+05
-3.547355470719677396e+05
-3.470052795778906438e+05
-1.955985798852259759e+05
-2.515926166201956803e+05
-3.837452461933535524e+05
-3.122184531115120044e+05
-3.280967445441817399e+05
-3.672539910382851958e+05
-3.879683166604840662e+05
-4.074231287084638607e+05
-3.883308831411498832e+05
-3.456654437237674138e+05
-3.381368998325958382e+05
-3.516503142169786151e+05
-3.576118891626987606e+05
-3.360407413575530518e+05
-3.295832801099738572e+05
-3.342334450337595772e+05
-3.478633418951446656e+05
-3.663777331395040965e+05
-3.004946288703975733e+05
-3.110230540674889926e+05
-4.316584258466786705e+05
-3.811492734009331325e+05
-3.672697485424678307e+05
-4.022068674859090243e+05
-3.774651933301861864e+05
-3.584174816698664799e+05
-3.688608524523027008e+05
-3.854628909157449380e+05
-3.565610864012141246e+05
-3.032760399748694617e+05
-2.951332640535829123e+05
-3.239518393879274372e+05
-3.424544667800876778e+05
-3.201372042786756065e+05
-3.069709421125319786e+05
-3.194585263895327225e+05
-3.525912700957438210e+05
-3.840892184490078362e+05
-4.149177626597941853e+05
-4.160473207845779834e+05
-3.870296992732209619e+05
-3.836715703335108701e+05
-3.767426195323045831e+05
-3.717620999890745152e+05
-3.467401158716897480e+05
-3.359892420347467996e+05
-3.529935034034806304e+05
-3.747175016153198667e+05
-3.371453974854843691e+05
-2.709176572260567918e+05
-2.198943835797556676e+05
-1.199326112705399282e+05
-8.559432155307044741e+04
-2.515470317592562642e+05
-3.047170179825235391e+05
-3.124339500682757935e+05
-3.601950420504749054e+05
-4.190042766099207802e+05
-4.633219463035155786e+05
-4.699372006627790397e+05
-4.207119719617599621e+05
-3.980093234674199484e+05
-3.747192391065179836e+05
-3.639579667712030932e+05
-3.418501393881663680e+05
-3.330907439999902854e+05
-3.409819372787625762e+05
-3.544124390679214848e+05
-3.113873110501999035e+05
-2.328863949209586717e+05
-2.491079015218459535e+05
-2.730614400230664760e+05
-2.721409359934027307e+05
-2.585190573812195798e+05
-2.633977210291705560e+05
-2.531242450046078302e+05
-3.350828129182400880e+05
-4.147522088020304218e+05
-4.492649680181322619e+05
-4.734286243148010690e+05
-4.026502145945464727e+05
-3.784150462314274628e+05
-3.510315344168103766e+05
-3.509947065219001379e+05
-3.293524995315021370e+05
-3.131703272453582613e+05
-3.203600878246563952e+05
-3.286383578673229786e+05
-2.945764975539816078e+05
-2.098672438514004461e+05
-2.273235720465935301e+05
-2.505575730087067932e+05
-2.498846582167882007e+05
-2.452275177142319735e+05
-2.599188547958956333e+05
-2.445870252626774600e+05
-3.374318643891523825e+05
-4.091443137884709286e+05
-4.480078049194386695e+05
-4.930895628602318466e+05
-4.011443631973261945e+05
-3.642399454692375148e+05
-2.951323262422010303e+05
-2.529921408021680545e+05
-3.326722771275232080e+05
-3.316792788325683214e+05
-3.363314042776114075e+05
-3.462258277651520912e+05
-5.867942356288840529e+05
-1.019085562657296075e+06
-1.083159513408570318e+06
-1.038624706104517449e+06
-9.769400965810196940e+05
-9.184168229215911124e+05
-8.110293581259825733e+05
-5.973755927396023180e+05
-2.673490242147357203e+05
2.514905172032047994e+05
4.032095118109713076e+05
2.682942100113837514e+05
-7.867570283533306792e+03
-2.278374685724242590e+05
-2.589149078428824432e+05
-2.323081305140763288e+05
-1.729469258774446789e+05
-2.172686999673423124e+05
-2.571078188843802782e+05
-2.640503101386260241e+05
-2.325432476414178964e+05
-9.082417154389852658e+04
-8.792004247693624347e+04
-1.983115619206826668e+05
-1.541711839275960810e+05
-6.516720753370481543e+04
-1.804153260752756614e+05
-1.961098340081037022e+05
-3.629677823265951592e+05
-4.437738137987852097e+05
-2.199732446596832015e+05
-2.847739424631404690e+05
-3.865240348354203161e+05
-3.337397647927789949e+05
-3.876113947381216567e+05
-3.984085857976406114e+05
-4.282643463161678519e+05
-4.087547791093016276e+05
-4.083148723009354435e+05
-3.860034478181626182e+05
-2.919574876429616706e+05
-2.925559006355088204e+05
-3.120041795582049526e+05
-2.094451488949871855e+05
-3.117034685290739872e+05
-3.689889252076421399e+05
-3.560147466618823819e+05
-3.536248495587615762e+05
-4.174247871571498690e+05
-4.723413575654831948e+05
-4.864567975734488573e+05
-4.836736234824841376e+05
-4.014315636131986976e+05
-3.663518255273073446e+05
-3.741671238124307711e+05
-3.621781798458739650e+05
-4.306007401475482620e+05
-4.206349456010090653e+05
-4.075732964939281810e+05
-3.977922528674313799e+05
-3.898149005960125942e+05
-3.882915107638443587e+05
-3.338812408444604371e+05
-3.418133540340890177e+05
-3.481533969298924785e+05
-3.634986107802169863e+05
-3.404595777882068651e+05
-3.713355011780224741e+05
-3.690244292927016504e+05
-3.987750494789993390e+05
-3.912867075624330901e+05
-2.058156680543513503e+05
-1.453285914199822582e+05
-2.974896887624280062e+05
-3.685814995452729054e+05
-3.419774697171028238e+05
-4.489677120896433480e+05
-4.447911064409926767e+05
-4.236191406130883843e+05
-3.960301475916728377e+05
-3.862056963179134764e+05
-4.160385075954201166e+05
-3.332190166094390443e+05
-3.378402618552735075e+05
-3.399335934851092752e+05
-3.457758772570852889e+05
-3.162705257122365292e+05
-3.920807209041926544e+05
-3.158269844767040340e+05
-3.308427696172466967e+05
-4.182679699228755198e+05
-3.116256608840035042e+05
-2.782088717705321033e+05
-2.472260109496964142e+05
-2.693780078936244827e+05
-2.268482892902648309e+05
-3.609067879109617788e+05
-3.980929301474795211e+05
-3.770309634184599854e+05
-3.268676186468773521e+05
-3.409297391076500062e+05
-4.016489207399783190e+05
-2.906492502592845121e+05
-2.906741427957250271e+05
-2.973578737907917239e+05
-2.997872974377973005e+05
-2.664533837373176357e+05
-4.273904527669283561e+05
-2.601878141887597740e+05
-2.608632299675680697e+05
-3.818810014827260748e+05
-1.804024246657742187e+05
-1.786105850109019084e+05
-1.529389915980811929e+05
-1.961946672498353291e+05
-1.866213352884768974e+05
-3.648406981563230511e+05
-4.102201177839860320e+05
-2.899537418021056801e+05
-2.318477906543374993e+05
-3.055756562022864819e+05
-3.766963460513062309e+05
-2.122832365513036493e+05
-2.245932543283393607e+05
-2.381566709869022015e+05
-2.016273121167559875e+05
-2.399398094776275102e+05
-4.794715556588214822e+05
-2.390028011986673810e+05
-2.456555915827865247e+05
-7.004860392746482976e+05
-9.240027798099417705e+05
-9.893573008558222791e+05
-8.827209163927027257e+05
-8.045052444801179226e+05
-2.570060430597868981e+05
-3.282031201947515365e+04
-8.176367177189909853e+04
-2.358764681134332204e+05
-2.091027722118932288e+05
-2.791760387272047810e+05
-3.653315731278047897e+05
-2.716844024586360902e+05
-2.708543668021940393e+05
-2.994637736311741173e+05
-2.898273464062452549e+05
-2.752563041141323047e+05
-5.200706185097319540e+05
-4.787783280680733733e+05
-2.137504233151918743e+05
-1.022261042793443659e+06
-4.720950655880894046e+05
-4.016511187815058511e+05
-2.721901896202524658e+05
-2.753643565497230738e+05
-3.421577394819457550e+05
-3.782826367322552251e+05
-4.279419953474407084e+05
-3.848611732238808181e+05
-2.995600009779904503e+05
-3.661785947711097542e+05
-4.031567227913951501e+05
-3.675536778889023699e+05
-3.461734001113611739e+05
-3.861402935711692553e+05
-3.695424987052774522e+05
-3.731917926346086897e+05
-6.747342542280642083e+05
-3.513020845485453028e+05
-4.117880716953292722e+05
-5.396185756803947734e+05
-1.858466147435626481e+05
-3.041535409013238968e+05
-2.089551702875157353e+05
-2.579345680004002061e+05
-4.610746722260182723e+05
-4.158897666872490663e+05
-4.519461746965467464e+05
-4.229106525391774485e+05
-3.557539296617092332e+05
-4.210477211019734386e+05
4.251847475930999499e+05
-7.055925748992350418e+05
-5.614612377558287699e+05
-5.472258821117491461e+05
-4.686313668896618765e+05
-4.816115512787508778e+05
1.566787607157076709e+06
-4.334193544449917972e+05
-5.338460183592154644e+05
1.891663035770972725e+06
-2.381987713270514505e+05
-3.877604897200420965e+05
-2.486831427923954325e+05
-2.854505018944172189e+05
-5.961627828331985511e+05
-4.333268578685937682e+05
3.934267803108935477e+05
-1.161425243890092243e+05
-1.875740383241969394e+05
-3.198517284394910093e+05
-2.484377688515522750e+05
-4.061223073782667052e+05
-3.657480820216324646e+05
-4.244350991907089483e+05
-3.986995744302223902e+05
-1.072253172944252612e+06
-1.084080186018411769e+06
-6.632693651439103996e+05
-7.186289182276059873e+05
-6.641946992285770830e+05
-2.891228997812613379e+05
2.218310419877199456e+04
-4.750890082110085059e+05
-3.994553414045175305e+05
-7.575913116424498148e+05
-4.374366042982244398e+05
-3.827691923547355691e+05
-3.619429288130158093e+05
-3.622947750837871572e+05
-3.730059651397245470e+05
-1.867696749550045934e+05
-3.891121495981487678e+05
-3.219492264423575252e+05
-3.868847172933790134e+05
-3.230469513393684756e+05
-4.104699360264465213e+05
-6.011496197694267612e+05
-3.955705832605324686e+05
-6.005520228543572593e+05
-5.402391743204606464e+05
-2.223010842492757365e+05
-4.186006050717682811e+05
-1.926358058238737285e+05
-1.955449322823784314e+05
-7.154218010445805266e+05
-3.193519413093498442e+05
-2.470176550979514141e+05
-2.624754817319692811e+05
-3.316125361683040392e+05
-2.971843254608467687e+05
-4.787999899949994870e+04
-3.275026218768284889e+05
-2.549433769278704422e+05
-3.207434138273641001e+05
-2.479499117449634941e+05
4.050158583579361439e+05
-4.892603278136067092e+04
-4.871092676203930750e+03
-4.658342416696806904e+05
-4.368657053691495676e+05
-1.928571796586934943e+05
-4.015567964898901992e+05
-1.564104156904937699e+05
-1.664947433605275583e+05
-7.472819779582221527e+05
-2.197236297971033491e+05
-1.047673999868161045e+06
-7.542065113681470975e+05
-6.668711745269491803e+05
-4.643448617374645546e+05
-1.880083591283218935e+06
-5.784303511800896376e+04
2.686393946637469344e+04
-2.494439437014324358e+05
-1.124746629476509988e+05
-3.435564226260150317e+05
-4.017565534912373405e+05
-3.767790637222731020e+05
1.648891068982199766e+06
-5.783902965559370350e+05
-3.065303407780348789e+05
-5.210880065381242894e+05
-2.379374077691157581e+05
-1.074583033515624935e+06
2.999320570386721753e+06
-6.089891842374282423e+05
-1.801643869165077340e+05
-6.052698316687953193e+05
-7.087132729383367114e+05
-4.743884129482335411e+05
-1.159170209655880462e+05
-4.121597208151365630e+05
-3.284765458035485353e+05
-3.571864202674003318e+05
-2.761234578160066158e+05
-3.920127014330805978e+05
-3.833797099159527570e+05
-4.293379755804071901e+05
-7.131702615467122523e+05
-7.017719670623873826e+05
-4.001610264790190849e+05
-6.065821979494208936e+05
-3.748156217719413107e+05
-3.168025821079264861e+05
-8.956677530754973413e+05
-3.853557059464347549e+05
-2.841200752444958780e+05
-3.153671610883497633e+05
-5.746888984903983073e+05
-3.863870419699321501e+05
-1.202461239250148647e+05
-4.151636242810674012e+05
-3.579624021333414130e+05
-3.774995835951145273e+05
-3.027744145235060714e+05
-4.025470577816123841e+05
-3.631518480106620118e+05
-4.550985214106953936e+05
-7.274759349870100850e+05
-8.272348421282010386e+05
-4.805138650786082726e+05
-1.032448748976946808e+04
-6.884699913781182840e+05
-5.235080371920819161e+05
-9.775479027174287476e+05
-4.781330639580958523e+05
-3.741848257168296259e+05
-3.838868107106746174e+05
1.335358696021537064e+06
-4.509471798372212797e+05
-3.167527359858474229e+05
-6.094548465526173823e+05
-5.633860667367795249e+05
-5.346962069615578512e+05
-4.544012731466968544e+05
-4.508870944978184998e+05
-2.885343486424692674e+05
-1.188430444229766726e+04
1.902874888443653472e+05
-1.507011589710611152e+05
1.212580051177327987e+05
-9.518555153805250302e+04
6.680465813428745605e+03
5.873114666651911102e+04
-3.811188612339177635e+05
-2.958265994288539514e+04
-4.603506389215937816e+03
-3.251995440936915111e+04
-3.519277987323972629e+05
-1.437101275865372736e+05
-3.164277203939948231e+04
-1.812265634649274871e+05
-1.698636517342563020e+05
-1.408641763792275451e+05
-1.088638164071268402e+05
-1.484186393595994450e+05
-1.205517035101170186e+05
-2.411977310893333051e+05
-4.522103091668249108e+05
-8.425003863573034760e+05
-3.887164246569022071e+05
-5.191316758302438539e+05
-4.402721824593539350e+05
-3.469701106764429715e+05
-6.388727021923048887e+05
-3.534436726003127405e+05
-3.324545671038629953e+05
-3.128588235636244062e+05
-5.914587420862441650e+05
-3.638804130454021506e+05
-2.981607358790950384e+05
-3.396763577331335982e+05
-3.410417462444056291e+05
-2.722924982216281351e+05
-2.446424691833603429e+05
-2.332448237650846131e+05
-2.165164356161858886e+05
-2.957896210160241462e+05
-4.567681298490216723e+05
-9.648323835375841008e+05
-4.616792842578111449e+05
-5.474324719397140434e+05
-5.196687341422881000e+05
-4.116315202763832640e+05
-5.801943912377431989e+05
-4.045741219590380788e+05
-4.121306551174758933e+05
-3.654702223193112295e+05
-5.693023057654319564e+05
-2.748746993924353737e+05
-3.809798906458480051e+05
-4.167642626218586229e+05
-4.549349191317681689e+05
-6.376912395569703076e+05
-1.012345874970035860e+06
-1.046442213648564415e+06
-1.005216563881536713e+06
-9.869632602251805365e+05
-1.045247162181489868e+06
3.092257048009522259e+06
-4.570934754948921036e+05
1.467271546946658054e+05
2.577190373844162095e+05
5.080308261491684243e+04
-2.267921421364678536e+05
-1.852681493397972081e+05
-2.336131073223339627e+05
-1.827284207883381750e+05
-3.747918327667561825e+05
-1.096137094335176516e+05
-6.052921143748483155e+04
-1.285467000860939734e+05
-2.628801440341763664e+05
-1.949289196479828097e+05
-2.118578502622068627e+05
-1.514010722801072989e+05
-1.810495143517253455e+05
-1.945421588208440226e+05
-2.958130170992719941e+05
-7.953779314254047349e+05
-2.820808458753000014e+05
-4.238349560187979368e+05
-4.855167175416282844e+05
-3.999268434185839724e+05
-4.065060833675437607e+05
-3.759666467303921236e+05
-4.245376306535183685e+05
-3.618599206104194745e+05
-4.881401945252156584e+05
-3.824590932354277465e+05
-4.514260318069796776e+05
-3.088245760634376202e+05
-3.434256179622531636e+05
-2.460088832710253773e+05
-2.648663174416674301e+05
-1.975752515406159218e+05
-2.650948099173504161e+05
-2.421296877477210946e+05
-2.950907833079237025e+05
-8.431525624020722462e+05
-4.002346352122167591e+05
-3.974318443499740679e+05
-4.719561377432462759e+05
-4.004133924663928337e+05
-3.606850636043087579e+05
-3.694852602342043538e+05
-4.142870008699771715e+05
-3.419125955969879869e+05
-4.186299688928904943e+05
-3.688904748429607134e+05
-4.545926381780715892e+05
-3.174872794344703434e+05
-3.537977931638082955e+05
-2.626799253482082859e+05
-2.887457402360807173e+05
-2.206177221820297418e+05
-2.834103635422323132e+05
-2.483718576010572724e+05
-2.795726775989484740e+05
-7.240296845178657677e+05
-3.660095666760531021e+05
-3.420472522714058869e+05
-4.239384479370034533e+05
-3.188839179185094545e+05
-1.007324556008322397e+05
-2.297339632095273118e+05
-4.112121539268717170e+05
-3.603197810441033216e+05
-3.913138291242527775e+05
-3.909815636252352269e+05
-4.586367916765792761e+05
-3.233292213940633228e+05
-3.560914098061418626e+05
-2.844821822234714637e+05
-3.014892310943996999e+05
-2.513774905259287916e+05
-2.972408296929989010e+05
-1.762620185765598435e+05
-5.674963337656215299e+04
-4.469796272702063434e+05
-3.585189462269302458e+05
-3.605880397980571724e+05
-4.387134429833523463e+05
-4.089182373004659312e+05
-3.505438625968535198e+05
-2.617227207726470660e+05
-2.590845654751672409e+05
-3.331606929277747404e+05
-3.427361010471330956e+05
-3.350563565919103567e+05
-4.022745888340172824e+05
-3.390360470559929963e+05
-3.964027932366887107e+05
-3.681455167504907586e+05
-3.312072422659224831e+05
-2.417630944726167945e+05
-3.146410185611601919e+05
-3.055557561347619630e+05
-3.167657628317585913e+05
-4.636488230964490213e+05
-3.309095216939388774e+05
-3.084297190529992804e+05
-3.841939962509289617e+05
-3.800631997646345990e+05
-3.380869672487208154e+05
-3.525023495389926247e+05
-3.546920792460608063e+05
-3.283526411507637240e+05
-3.214633237416329794e+05
-3.668424743487787200e+05
-3.734207269321773201e+05
-3.305969765744083561e+05
-3.482569850513671990e+05
-3.199497893698555417e+05
-3.279555742768987548e+05
-3.225281631227231119e+05
-3.304164341727992287e+05
-3.346433916398480069e+05
-3.481160590695827268e+05
-3.765072443231418729e+05
-3.477399313392254990e+05
-3.330581119855416473e+05
-3.916885851366899442e+05
-4.064391732491671573e+05
-3.669985619710618630e+05
-3.526113327172184363e+05
-3.400572676252600504e+05
-2.765385949497912079e+05
-1.706275569827225991e+05
-1.684316550967314979e+05
-3.036263681533883791e+05
-3.696191606821926543e+05
-3.890808969124309951e+05
-3.826984941603231709e+05
-3.790420646220778581e+05
-3.778552990133319981e+05
-3.626704082874513697e+05
-3.905451608673427254e+05
-4.064668266731244512e+05
-3.343472278289344395e+05
-3.512887826859884663e+05
-3.358226390789407305e+05
-2.391850783922454575e+05
-1.569903655500721652e+05
-2.663203811332839541e+05
-3.902497031848202460e+05
-3.873150192319334019e+05
-3.851992021339109633e+05
-3.627996206812650198e+05
-4.050493401266605360e+05
-3.797427551994412206e+05
-3.769934585581105202e+05
-3.862402344839617144e+05
-3.850078510734057054e+05
-3.703373149459188571e+05
-3.736019096536039142e+05
-3.599331260795745766e+05
-3.934159630591999739e+05
-3.920831101555087371e+05
-2.686668694130945951e+05
-3.286247563563655131e+05
-3.325120553263267502e+05
-3.654571420355425216e+05
-3.890762953144793864e+05
-3.507706023228375707e+05
-3.432194025465130107e+05
-3.366156090831168694e+05
-3.465028807096520904e+05
-3.324357569924589479e+05
-3.649198826636627782e+05
-3.399999801138392650e+05
-3.460884756660938729e+05
-3.635869620106366929e+05
-3.639125562769072130e+05
-3.388156118013414089e+05
-3.484252071999986656e+05
-3.389739633920417400e+05
-2.978827796542672440e+05
-2.467256581815200625e+05
-2.383701189966835082e+05
-3.238833090816701297e+05
-3.318537742011598311e+05
-3.559281384619805031e+05
-3.820309069040834438e+05
-3.397916278945620870e+05
-3.394736705942109693e+05
-3.454537380700391950e+05
-3.571839775091636693e+05
-3.434752690404673340e+05
-3.748994385873146821e+05
-3.555842333072063047e+05
-2.794541377020454966e+05
-1.204431526918471791e+05
-2.453947844482702203e+05
-3.806390638787769713e+05
-4.339044940811989363e+05
-4.152543937584862579e+05
-3.614249358563493006e+05
-3.697012826450670836e+05
-2.814060679068716709e+05
-3.451647690753499046e+05
-2.692781975045495201e+05
-1.488705645231590606e+05
-2.280609894489612198e+05
-3.372133616627615411e+05
-3.731617793184134644e+05
-3.884292964063665131e+05
-3.976598426824251655e+05
-3.787354782490737271e+05
-3.105132929247281281e+05
-2.388395034382208250e+05
-3.584961295998827554e+05
-3.964458471181101631e+05
-3.959814781722591724e+05
-3.733178081057216041e+05
-3.751469678688170388e+05
-3.723000166183544789e+05
-3.972103205233435147e+05
-3.900036503519406542e+05
-3.093914734567514388e+05
-3.541344065072087105e+05
-3.680701121024540626e+05
-3.876726268543781480e+05
-3.927366411446047714e+05
-3.442411826718301745e+05
-3.424577129848626209e+05
-3.665959551215218380e+05
-3.605506849102419801e+05
-3.389650727008172544e+05
-3.629740747580965981e+05
-3.603868362330622040e+05
-3.486277323466561502e+05
-3.470203990038071061e+05
-3.420217630115973298e+05
-3.485518562476120424e+05
-3.530214389257715084e+05
-3.600941987513162894e+05
-3.660263833128414117e+05
-3.491711695308606140e+05
-3.051233023185094353e+05
-3.444094733409057371e+05
-3.647692912973726634e+05
-3.568566606676762458e+05
-3.488425963305938058e+05
-3.183749177787711378e+05
-3.216996272684430005e+05
-3.459008681563355494e+05
-3.501915415027431445e+05
-3.296595266005785670e+05
-3.378023387774627190e+05
-3.342041361390072852e+05
-3.326054328359572683e+05
-3.482876523752871435e+05
-3.522643738595050527e+05
-3.488467009123243624e+05
-2.854335583256238606e+05
-2.268711193409964908e+05
-2.319496432361516636e+05
-2.234190665364696179e+05
-3.442217899763714522e+05
-3.772883763027230743e+05
-3.911169015796938911e+05
-3.803642920572556322e+05
-3.684860893090141471e+05
-3.436036003674108069e+05
-2.676522385896549094e+05
-1.258297545084990561e+05
-2.233791121606237721e+05
-3.718741079054126749e+05
-3.973540447116168216e+05
-3.865382052032535430e+05
-3.714296222629917320e+05
-3.775721902246720856e+05
-3.157271333284920547e+05
-2.644002017415063456e+05
-3.825814549016209785e+05
-3.937141114945160225e+05
-3.798750263186919037e+05
-3.685633904836066067e+05
-3.614998637033840641e+05
-3.756414290570487501e+05
-3.807665109196987469e+05
-3.578230332633868093e+05
-3.406218582412248943e+05
-3.346878195200082846e+05
-3.551999974719726015e+05
-3.733599323858798016e+05
-3.650214144033498596e+05
-3.464846230018923525e+05
-3.451300296235887799e+05
-3.381436485295908060e+05
-3.339059059355633799e+05
-3.414371886982445139e+05
-3.465257842995094834e+05
-3.446840205472900998e+05
-3.678617524337562500e+05
-3.766907750199704897e+05
-3.923400234466359252e+05
-3.965584628598834388e+05
-3.292474765109136933e+05
-3.070310108075439930e+05
-3.554109814276506659e+05
-3.315682314843193162e+05
-3.250868167441372061e+05
-3.518485018291387241e+05
-4.053633505452233367e+05
-3.988182474243533798e+05
-3.599819937444151146e+05
-3.348864061988228932e+05
-3.217791163269862300e+05
-3.208366081160078757e+05
-3.225586405886958819e+05
-3.495296345002745511e+05
-3.907331763592185453e+05
-3.969389949378995225e+05
-3.513053351780545199e+05
-3.327900130212155636e+05
-3.114086607579099946e+05
-3.059499983287514187e+05
-2.591456891936582979e+05
-1.839326656315418659e+05
-1.356665765089825727e+05
-2.617247380914036185e+05
-3.321792895654188469e+05
-3.652193388074925169e+05
-4.022459854515844490e+05
-3.985329874629776459e+05
-3.816767036401452497e+05
-3.575992721913657151e+05
-3.419298052522436483e+05
-3.361583160507357679e+05
-3.344705669363207417e+05
-3.324484187855964992e+05
-3.535387419561949791e+05
-3.202343451540576061e+05
-1.589592571857979055e+05
-2.196643469308561180e+05
-3.425217690787573811e+05
-3.673308481137903873e+05
-3.765912526699660812e+05
-3.846074044672902673e+05
-3.919332367587808985e+05
-4.124455901200561784e+05
-4.083299078878480941e+05
-3.967405215360056609e+05
-4.141069350408348255e+05
-3.951110648325562943e+05
-3.693106394847163465e+05
-3.359870375031493604e+05
-3.243121788099153200e+05
-3.396598399420902133e+05
-3.485121784214667277e+05
-3.382423508310192265e+05
-2.819132651039322373e+05
-2.495951092883839738e+05
-3.790143729633500334e+05
-3.902112368810160551e+05
-3.584187046002068091e+05
-3.536356389533031033e+05
-3.671451889619607246e+05
-3.683297451524079079e+05
-3.595099261435057269e+05
-3.493115814867881127e+05
-3.460560672021157807e+05
-3.686464272724543698e+05
-3.977170309759755619e+05
-3.720393331184675917e+05
-3.399035460131935542e+05
-2.967467114612173755e+05
-2.958375757765391609e+05
-3.387414171831412241e+05
-3.633320523073769873e+05
-3.530049820875716396e+05
-3.602637098986983765e+05
-3.854493573400356108e+05
-3.795880230158974882e+05
-3.721963899435886415e+05
-3.386759276476639789e+05
-3.270076114302929491e+05
-3.414324730284227990e+05
-3.466650544505612925e+05
-3.455904669098042650e+05
-3.472210954953150358e+05
-2.851169570555199170e+05
-1.454482050864263438e+05
6.185968634566175751e+04
-1.361203367466037162e+05
-2.329410569917084649e+05
-2.694102218428044580e+05
-3.611245283878513146e+05
-4.204786346199570689e+05
-4.308181439225105569e+05
-4.168827025290849851e+05
-4.177808188806477701e+05
-4.261507704961171839e+05
-4.161570596919020172e+05
-4.006330449190367945e+05
-3.664010864874033723e+05
-3.560043254931056872e+05
-3.861925690072621219e+05
-4.122890057050369214e+05
-3.891635763441959862e+05
-3.201716948021483840e+05
-3.464486199137449730e+05
-3.892736471083406359e+05
-4.043379798459338490e+05
-3.621694711004015990e+05
-3.178892625632463023e+05
-2.578567322827859316e+05
-2.656643163767666556e+05
-3.400059622308763210e+05
-3.693482328846552409e+05
-3.578497619417733513e+05
-3.610190648383900989e+05
-3.695824891327815130e+05
-3.630367385955989594e+05
-3.468189902779664844e+05
-3.161356483739705291e+05
-3.076394064805170055e+05
-3.188622889451789670e+05
-3.229070975166283315e+05
-3.639687243612301536e+05
-4.019368485944524873e+05
-3.690286120284800418e+05
-3.741392228690956254e+05
-4.124745448987598065e+05
-3.873507774080438539e+05
-3.174722092586292420e+05
-2.316374432987978216e+05
-2.457238291024516802e+05
-3.360935722242186312e+05
-3.678415582806302700e+05
-3.463595358529095538e+05
-3.398659930968489498e+05
-3.647482388860317878e+05
-3.826919961797979195e+05
-3.620076617787494324e+05
-3.383271571419960819e+05
-2.955662229563747533e+05
-2.834118610309790820e+05
-3.398741716229149606e+05
-3.134290274443563540e+05
-3.034587656491564121e+05
-3.865386696808403358e+05
-3.900893483999442542e+05
-3.630726351400323911e+05
-3.329374552554637194e+05
-5.107355958876656368e+05
-8.862339141234947601e+05
-7.120716960023316788e+05
-1.801080452093092026e+05
-6.578511713367886841e+03
-2.251724314728365280e+05
-2.762087448536155280e+05
-2.842317676909714937e+05
-2.837740039632443804e+05
-2.839772025156705640e+05
-2.834351504844569135e+05
-3.009149766345125390e+05
-3.050604428810757818e+05
-2.916756852788296528e+05
-3.099886878689764999e+05
-2.773574091549417935e+05
-1.354759437508173287e+05
-2.279713343285326846e+05
-3.591608705842487980e+05
-3.559919575374743436e+05
-3.169310425156829879e+05
-2.600063706104841549e+05
-2.818654599532077555e+05
-3.899186683024652302e+05
-4.275697072783939075e+05
-3.789772236419846304e+05
-3.522989321137792431e+05
-3.436999067406369140e+05
-3.510503509192229249e+05
-3.491020217975203414e+05
-3.699058297084975056e+05
-3.989593341699005105e+05
-3.908991566324206069e+05
-3.689172576664625667e+05
-3.328230857916082023e+05
-2.600296985679686768e+05
-3.572722749333024258e+05
-4.072409976522964425e+05
-3.966223847601459129e+05
-3.846587721278588288e+05
-3.509056603396257851e+05
-2.916175139306065394e+05
-3.034296037132170750e+05
-3.757606498181729112e+05
-3.934791443663698155e+05
-3.332426444206333254e+05
-3.227358157688858919e+05
-3.242256732849639375e+05
-3.332702166769267060e+05
-3.293448410956517328e+05
-3.680160266025310848e+05
-4.094760248051376548e+05
-3.798372844056467293e+05
-3.803675490972665139e+05
-3.893764011236347724e+05
-4.558997711011029314e+05
-4.501967550791448448e+05
-3.563312815915839747e+05
-3.128014137632462662e+05
-3.532792834779676050e+05
-3.335815311896479689e+05
-2.899667514717716258e+05
-3.013988036335285287e+05
-3.635887625731667504e+05
-3.211206456592296017e+05
-1.914481094587489497e+05
-1.922424314198653447e+05
-2.333426842213683994e+05
-1.974064252211237326e+05
-3.058011966675487347e+05
-3.936742116930764169e+05
-4.667601527495372575e+05
-4.224057824169117957e+05
-3.908651992604712723e+05
-3.871136822204159107e+05
-4.104546033177654026e+05
-3.934394246078170836e+05
-3.700797398863664130e+05
-3.513147537952365819e+05
-3.530422436892471742e+05
-3.360344008341431618e+05
-3.009369819264542311e+05
-3.182808789327510167e+05
-3.766951527576433728e+05
-3.757282276815052610e+05
-2.862824588103317656e+05
-2.557157984840574209e+05
-2.377368020564488834e+05
-2.540024506829020102e+05
-2.688021727602714673e+05
-3.356380846753860824e+05
-4.155375554292906309e+05
-3.863796045598038472e+05
-3.664980706505695125e+05
-3.632201083581012208e+05
-3.685516936184951337e+05
-3.655883511524768546e+05
-3.439259756000160705e+05
-3.152299057760316646e+05
-3.198657282082720194e+05
-3.209262906563481083e+05
-3.149375053478662157e+05
-3.216905701282138471e+05
-3.500627426768920850e+05
-3.344237298943966161e+05
-2.373086690420126542e+05
-2.043706925173837226e+05
-2.070439874400401022e+05
-2.302265818140192423e+05
-2.477204191525629722e+05
-3.234201405213873368e+05
-4.085963168945234502e+05
-3.758465386020151200e+05
-3.626075418813761789e+05
-3.627002950874106027e+05
-3.555273723835046403e+05
-3.494827423271951266e+05
-3.457161237298219930e+05
-2.911412280895800795e+05
-2.289206137149883434e+05
-3.203421427524609026e+05
-3.385370498720958130e+05
-3.407127678909108508e+05
-3.643150574497368652e+05
-5.407610813188712345e+05
-9.940288564508832060e+05
-1.061365871498353314e+06
-9.971021586563527817e+05
-8.972474950556118274e+05
-7.217778383346470073e+05
-3.125289565189464483e+05
9.760595743993413635e+04
-4.832703733935474884e+04
-1.551896575183927780e+05
-1.919464489968470298e+05
-1.930529912694199011e+05
-1.930812117290084716e+05
-2.036402290376618039e+05
-2.147083531336979941e+05
-2.442241120821342338e+05
-2.547156240908082109e+05
-2.596354748947930057e+05
-2.515892546426618937e+05
-1.210854153288708767e+05
-7.850914004843658768e+04
-1.370195499343997799e+05
-1.990914734128450509e+05
-2.249246301882694243e+05
-2.528801157239603344e+05
-2.741399578069720883e+05
-2.940685578360349173e+05
-2.657108258768171072e+05
-3.554789046955113299e+05
-3.904755579977384768e+05
-3.868634088038261980e+05
-3.596767455807852093e+05
-3.632649355228897184e+05
-4.037538126072853338e+05
-4.499871007014957722e+05
-4.317990197374415584e+05
-3.492659328144900501e+05
-3.877062961422122316e+05
-4.055111821649660124e+05
-4.124098237730099354e+05
-3.927806986326964106e+05
-3.083168875338076614e+05
-2.727227608447714010e+05
-2.717700454109124839e+05
-2.910982251512940275e+05
-3.163638711941323709e+05
-3.621279523293727543e+05
-4.076448434375014622e+05
-3.805113229468802456e+05
-3.819631913706237683e+05
-3.812212848696825095e+05
-3.481323673404320143e+05
-3.464043801713882713e+05
-3.695379304632211570e+05
-4.080657990837704856e+05
-4.269682853498598561e+05
-4.202639982854763512e+05
-4.194765826963083819e+05
-4.209933217796250246e+05
-4.233876837262948975e+05
-4.024209318246052135e+05
-3.407673455107709160e+05
-3.039573962931053247e+05
-2.899212991722035222e+05
-3.104710318497917615e+05
-3.284672106220915448e+05
-3.403694295233860612e+05
-3.491582613620036282e+05
-2.667777238475605845e+05
-1.576966220908164978e+05
-1.240171838375916705e+05
-2.774282794983132044e+05
-3.397280244706363883e+05
-3.791592281398123596e+05
-4.335887110222965712e+05
-4.552489421841155272e+05
-4.406430645174328238e+05
-4.208260828267601319e+05
-4.145894595069016796e+05
-4.235824499551838962e+05
-4.046809749554879963e+05
-3.498687969829513459e+05
-3.117986169912421610e+05
-2.881621467403192073e+05
-2.924223883323224727e+05
-3.062590390179380774e+05
-3.040066541857605334e+05
-2.933111470072882948e+05
-2.808552176786372438e+05
-2.830956187548013404e+05
-2.749859405586614739e+05
-2.502979246451701038e+05
-2.720891340901865624e+05
-3.221583735773158260e+05
-3.874928523276794003e+05
-4.101557049801230896e+05
-3.863753306862338213e+05
-3.761340348132171202e+05
-3.792236142000567634e+05
-3.799430823312308639e+05
-3.547062562075834721e+05
-3.240413837199269328e+05
-2.932951656536404043e+05
-2.785160184741278645e+05
-2.823101767063953448e+05
-2.897044807323007844e+05
-2.675992458309163339e+05
-2.403725565990875475e+05
-2.373528360728269909e+05
-2.371772172621411737e+05
-2.341201834005533019e+05
-2.172911395100834779e+05
-2.399048584268139675e+05
-2.986825508803594857e+05
-3.714197776018291479e+05
-3.841292687045088969e+05
-3.526392533653841820e+05
-3.502176265655816533e+05
-3.628287930862572975e+05
-3.718037069461850915e+05
-2.901133704256779747e+05
-2.430423757648123428e+05
-3.250166089772142004e+05
-3.303712444039292168e+05
-3.282432086171142291e+05
-3.313115570767705794e+05
-6.122270676977979019e+05
-1.059114592746524606e+06
-1.080938270875425544e+06
-1.024002110430003377e+06
-9.553218312483676709e+05
-8.769358002318462823e+05
-7.238178030919083394e+05
-3.380411462053183932e+05
1.220088263166454853e+05
1.972325518570304848e+05
-1.044860881668846123e+05
-1.700505056557481876e+05
-1.215098328503508819e+05
-1.472656372186089866e+05
-1.774895517900949344e+05
-1.989110693925006781e+05
-2.041916795361709082e+05
-2.099958106303783134e+05
-2.179911516931913793e+05
-2.232302563224036712e+05
-1.829639057628037408e+05
-2.082781469015928451e+04
1.061806040310696699e+04
-8.251566679290053435e+04
-2.154464247049572878e+05
-2.226177463881578296e+05
-2.343235712730477098e+05
-3.157209430431579240e+05
-4.040727782680626260e+05
-4.292344979230781319e+05
-3.816876530715548433e+05
-3.685224059649880510e+05
-3.249931976111722179e+05
-2.382656237142813625e+05
-3.435157952505287249e+05
-3.909745616580522619e+05
-4.002175456068509957e+05
-4.325375346746949945e+05
-4.348922436118362239e+05
-4.185280197967416607e+05
-3.705705246391603723e+05
-3.305246237590732053e+05
-3.531453799112777924e+05
-3.554835836101310560e+05
-3.654399666011664085e+05
-3.511415406391751021e+05
-3.649207463530499954e+05
-4.114536643544426188e+05
-4.768735593355406309e+05
-4.793633383449376561e+05
-4.203029887544055237e+05
-3.948144438959353138e+05
-3.967480816980309319e+05
-4.107836491262358613e+05
-3.758274663224394899e+05
-3.884572291118145222e+05
-4.195529693467650795e+05
-4.447218683290046174e+05
-4.305629524308771361e+05
-4.067915932410969399e+05
-3.657371413253376959e+05
-3.463885045872820774e+05
-3.902031798368074233e+05
-3.841086484696333064e+05
-3.924243301378937904e+05
-3.667876368692470714e+05
-3.629283820940763690e+05
-3.915659189271347132e+05
-4.365074041733837221e+05
-4.334311808946060482e+05
-3.153694614124663640e+05
-2.207039660825352184e+05
-2.421295089756425004e+05
-2.151387567449469352e+05
-2.820443003101896029e+05
-3.342436815760181053e+05
-3.687550588824456790e+05
-4.206938521495225141e+05
-4.026743066077500116e+05
-3.640002115172166377e+05
-3.177508826369422022e+05
-3.145435131098623388e+05
-3.587217562765174080e+05
-3.414078182782337535e+05
-3.612481949411167298e+05
-3.330935196232195012e+05
-3.144036709613688290e+05
-3.240873072719014017e+05
-3.516066424563673791e+05
-3.495390347812352702e+05
-2.841851369144578930e+05
-2.385035492647530045e+05
-2.351974740504208021e+05
-2.395597607773159398e+05
-1.988618749246268999e+05
-2.040046456510580610e+05
-2.439855978214734932e+05
-3.139459594134518411e+05
-3.065890495650037192e+05
-2.693333977165548131e+05
-2.420427634057165124e+05
-2.703722156638045562e+05
-3.153922523229019716e+05
-2.934869919435940683e+05
-3.245812289742224384e+05
-3.048985185877325712e+05
-2.860687053108674008e+05
-2.841804560493379831e+05
-2.947355717840548605e+05
-2.925781304735073354e+05
-2.359263990434252191e+05
-1.974001600873919670e+05
-2.268646493130284362e+05
-2.663428093984758016e+05
-2.051332250262720045e+05
-1.523936473916693358e+05
-2.515132246012638789e+05
-3.509419206655055750e+05
-3.440257677820774261e+05
-3.129585351518706884e+05
-3.039307423883609008e+05
-3.414416171827756334e+05
-3.764393606162662618e+05
-3.171877472725475673e+05
-2.663793963037249632e+05
-3.515233911255134735e+05
-3.723331490695772227e+05
-3.635317799626854248e+05
-3.707344335635070456e+05
-5.098625292334994301e+05
-1.010079982705638977e+06
-1.120139841504342156e+06
-1.065133137284340803e+06
-1.018521049571687821e+06
-9.155349614294057246e+05
-7.575155216715177521e+05
-3.461147547590546310e+05
1.602700467842107173e+05
1.979713123247260228e+03
-1.744221889001578093e+05
-2.233558560222911183e+05
-2.618583502012877725e+05
-2.831022553288714262e+05
-2.759411069560517790e+05
-3.091827119145329343e+05
-3.158482607138872845e+05
-3.176534075744764414e+05
-3.207977183726031799e+05
-3.287575691892772447e+05
-3.042647836032598279e+05
-2.362062754871498328e+05
-2.226981798244662350e+05
-2.457277142167194979e+05
-1.353359746824495960e+05
-1.563549496841060463e+05
-2.623419480253231013e+05
-3.989137843568127137e+05
-5.044027209903048351e+05
-5.018711984059421811e+05
-4.836914505094863707e+05
-4.822830027129219379e+05
-4.453070390250216005e+05
-3.980094163287866395e+05
-3.679706822548414348e+05
-3.217108940644594841e+05
-2.307643011940959841e+05
-3.502790587223258335e+05
-3.656631025660972809e+05
-3.603449757232193369e+05
-3.057473014647706877e+05
-2.234345414673166815e+05
-2.282124886047918117e+05
-2.819624988516792655e+05
-3.208294613102243748e+05
-3.937676296490099048e+05
-3.955918701643629465e+05
-3.840007884828501847e+05
-4.458809379868486430e+05
-4.299889349302144255e+05
-4.137268176351403818e+05
-4.115977489391939016e+05
-3.002046517245855648e+05
-2.066409596405168995e+05
-1.942552449787245132e+05
-1.648434521712299902e+05
-2.027779127462368924e+05
-2.316076359465036076e+05
-2.120326238736256491e+05
-2.150147132850966882e+05
-1.400960496949689696e+05
-5.296030743225023616e+04
-1.005257409286272014e+05
-1.862278716720490484e+05
-2.416461173818963580e+05
-3.465094070264978800e+05
-3.623142447472607018e+05
-3.498769254607354524e+05
-3.907669932945256587e+05
-3.141843978587946622e+05
-1.626152074627212714e+05
-2.759439456810420379e+05
-2.351080673338521738e+05
-1.108461555510908365e+05
-1.385081171511083376e+05
-1.080492100909104338e+05
-1.887731732198828831e+05
-2.551670743133421056e+05
-2.544576047334959731e+05
-2.700122770743174478e+05
-1.683985377428843640e+05
-7.966914114840305410e+04
-1.590758663183753379e+05
-2.925216623348436551e+05
-4.073378091129228706e+05
-5.770195340108003002e+05
-6.421320504655494587e+05
-6.203328953430600232e+05
-5.593942830679996405e+05
-5.569079904655939899e+05
-6.261825453872163780e+05
-6.522820829733333085e+05
-3.938954840478909900e+05
-2.191998389642385300e+05
-2.805767774842076469e+05
-2.220790447170069674e+05
-3.306531784658369143e+05
-4.336117188697122037e+05
-4.602652545388500439e+05
-5.096706386066307314e+05
-4.007442165753040463e+05
-3.136028576155380579e+05
-4.723564740605752449e+05
-6.275204586567708757e+05
-7.256999049797912594e+05
-9.104570208560265601e+05
-9.461426635871049948e+05
-9.302270403357025934e+05
-9.304241847002760042e+05
-9.124790691376061877e+05
-9.574950747548125219e+05
-9.885283795445647556e+05
-6.584471230670842342e+05
-4.505078988825231791e+05
-5.401215475664497353e+05
-4.515771303103306564e+05
-5.724017812484826427e+05
-6.825783551940156613e+05
-6.959020537306347396e+05
-7.422447742279364029e+05
-5.959514216087895911e+05
-3.361868367703503463e+05
-1.726582147348045837e+05
1.817772784359892830e+04
2.404589665135503747e+05
7.289485214103915496e+05
8.694461576380458428e+05
1.391355785971595906e+05
3.867441062744050287e+05
3.488081349702158477e+05
3.740314326987009263e+05
7.660542851016712375e+05
1.067339491309629986e+06
1.995007158099355875e+05
-4.098225068084280938e+05
-7.630070794748098124e+05
4.173779795837798156e+04
6.946561754353380529e+05
1.047697217364785844e+06
9.308117664781133644e+05
3.386746937868473469e+05
-4.905195496759095695e+05
-1.793490516641966533e+05
4.419712166597493924e+05
7.037729791103519965e+05
6.026387198363884818e+05
6.401449481864008121e+05
6.880075313352171797e+05
5.613391799929685658e+05
6.223479396838315297e+05
4.910387682558843517e+05
-1.310905674624559470e+04
-1.558045620473430026e+06
-1.912698047208632343e+06
-9.076101555773059372e+05
-1.109213960696944036e+06
-1.480331566867259797e+06
-1.535307364710114896e+06
-1.775503534882278414e+06
-1.518672856595145771e+06
-1.279144861994917970e+06
-1.245253538677948993e+06
-1.110520008627446834e+06
-1.292307523843712639e+06
-1.327587058839007979e+06
-1.211914553412440466e+06
-1.017141451665871777e+06
-3.231132904549087398e+05
-7.001384664753873367e+05
-9.846949563478240743e+05
-5.339955359769517090e+05
-3.934075069014062174e+05
-5.646067432123897597e+05
-3.726940958168474026e+05
-3.023604390633187722e+05
-3.686326069108480588e+05
-1.789949324341488536e+05
-3.354223792345887050e+05
-3.705070349136532750e+05
-2.831702856179333758e+05
-3.383392260556065012e+05
-2.075965534754551481e+05
-1.194933856249863748e+05
-3.542022071016633417e+05
-4.068418588952249847e+05
-2.874856209638251457e+05
-3.972606953518008813e+05
-5.947596817369314376e+05
-5.676275209116085898e+05
-5.184342882783841342e+05
-5.110070731541800778e+05
-4.332208465221896768e+05
-1.185179793343606871e+05
5.566234070745832287e+04
2.392225605345284566e+04
2.589248078031053301e+05
1.195719399033826776e+05
-2.326286936396034434e+04
5.342644389545195736e+04
-8.116491688572568819e+03
-6.968916251353803091e+04
-4.580583225333481096e+04
-1.937718741964045912e+05
-2.498735660395547748e+05
-2.154927675313139334e+05
-3.162540405922411010e+05
-4.322011243412755430e+05
-4.275488174745640717e+05
-2.082826285050963052e+05
-2.039615145779494196e+05
-4.114072756570684724e+05
-4.715406961939160246e+05
-2.409348008954538964e+05
-1.219140453448863700e+05
-2.029620274224614259e+05
-1.450455133523313561e+05
-2.102437602081003133e+05
-2.416584886445885058e+05
-1.736360469646679703e+05
-3.092296208729413338e+05
-2.756149491241595242e+05
-2.364809907038287492e+05
-3.586240731452347245e+05
-3.865892507331912639e+05
-4.241900636388031999e+05
-5.297901743580454495e+05
-5.298179277898577275e+05
-5.533046571385870920e+05
-5.215445438573670108e+05
-4.964134195627385052e+05
-5.174896316755764419e+05
-5.253671490405324148e+05
-3.734012479320559651e+05
-3.129111113184676506e+05
-3.851253642057415564e+05
-3.518756474816300906e+05
-3.729104512011089828e+05
-3.914824004124940839e+05
-4.281379632255121833e+05
-4.439859474725860637e+05
-3.918701605946393684e+05
-3.738261529272492044e+05
-4.461711251078112982e+05
-4.364241268689671997e+05
-4.509496116198685486e+05
-5.116075850984426215e+05
-4.975018511291160248e+05
-5.156839596388244536e+05
-4.870304563473185990e+05
-4.595698885698170634e+05
-4.709719778193429811e+05
-4.759141148141784361e+05
-4.086386991847136524e+05
-3.782641839013199788e+05
-3.924844865559577011e+05
-3.678876571054263040e+05
-3.647518254006931093e+05
-3.653712211601701565e+05
-3.895695539687676355e+05
-3.883318422597621102e+05
-3.564449363556461176e+05
-2.788633031312441453e+05
-1.361386987324878573e+05
-2.452838848146185046e+05
-3.716440895604128018e+05
-4.070701988323322730e+05
-3.837242473623182159e+05
-3.963919556500285398e+05
-3.775431700264655519e+05
-3.453159171443467494e+05
-3.309230493680132786e+05
-2.948159901927050669e+05
-1.513949964218487730e+05
-1.747865869650307577e+05
-3.253025211766621796e+05
-3.571815645908445586e+05
-3.426713615263069514e+05
-3.255858767350498820e+05
-3.355527681231005117e+05
-3.312100720359435072e+05
-2.264984052883117693e+05
-2.258972299359869212e+05
-3.561478851056597196e+05
-3.314557082597359549e+05
-3.204558625566496048e+05
-3.203666156500931829e+05
-2.953994866117448546e+05
-2.705070043382919393e+05
-2.545367486559012905e+05
-2.586900046434970573e+05
-2.738594734339148272e+05
-3.074228326053589117e+05
-3.658982048140007537e+05
-3.032957236958816648e+05
-2.954330790687806439e+05
-3.294866085799967404e+05
-3.126883874657817651e+05
-2.992793989253741456e+05
-3.044547331766479183e+05
-2.967573155182974879e+05
-3.241772020622671116e+05
-3.566105821682361420e+05
-3.479511438280169386e+05
-3.102066218576133251e+05
-3.049733420447735116e+05
-3.006198996741264127e+05
-2.874641514243700076e+05
-2.958528465242164675e+05
-2.879862625865042210e+05
-2.877535174734189641e+05
-2.818506737087703077e+05
-2.849554524558959529e+05
-3.962253154239249416e+05
-4.233760212870277464e+05
-3.750506078044821043e+05
-3.941633337963139638e+05
-3.815261302971858531e+05
-3.717342149452881422e+05
-3.732920363353389548e+05
-3.649897102316156961e+05
-3.983006275610157754e+05
-4.374943090489555616e+05
-4.118683044361062348e+05
-3.733998780904801097e+05
-3.659686799220870016e+05
-3.104757865657695802e+05
-2.420838052579438081e+05
-2.736657273134891875e+05
-3.368703711174883647e+05
-3.605746446916377172e+05
-3.570047386582404142e+05
-3.398091551654064097e+05
-3.050578523596709128e+05
-3.688875588206542889e+05
-4.024649905325614382e+05
-4.328620772465025075e+05
-4.332327658814940369e+05
-4.194558277157570701e+05
-4.066569164145605173e+05
-3.931829174749923404e+05
-4.148817452878690092e+05
-4.442126619560110848e+05
-4.086236164247270208e+05
-3.612327545092492364e+05
-2.044174502218738198e+05
-1.671711186389878858e+05
-3.290223051219438203e+05
-3.803934389749057591e+05
-3.668142209475950804e+05
-3.653900400077372324e+05
-3.629814631395083852e+05
-3.269121440552431159e+05
-2.932271348519288003e+05
-3.873038099714559503e+05
-3.825649250860307366e+05
-3.963895612717100885e+05
-3.981072507475113962e+05
-3.873392939476517495e+05
-3.543353166250118520e+05
-3.368678592496287310e+05
-3.651667354718947317e+05
-3.832541661868976662e+05
-3.525268622018868336e+05
-3.462190945226443000e+05
-3.557342490824249107e+05
-3.504497859926470555e+05
-3.449897108634887263e+05
-3.365801796888213139e+05
-3.045735020338769536e+05
-3.050809267021033447e+05
-3.258563196595582413e+05
-3.252368465986269293e+05
-3.595556865793335019e+05
-3.338053172023785301e+05
-2.964698337766838958e+05
-3.086960603448748589e+05
-3.308885137111907825e+05
-3.284682165941303829e+05
-2.960416597224996658e+05
-2.862671917524444871e+05
-3.035768045652222354e+05
-3.191043603309348691e+05
-3.016242651061675278e+05
-3.102266672682273202e+05
-3.295013409994898830e+05
-3.373976940427107038e+05
-3.456579597145699663e+05
-3.447888954993332736e+05
-3.162997489043988753e+05
-2.563393990132526960e+05
-1.288319142011676449e+05
-2.409889235615882790e+05
-3.917950362261896953e+05
-4.124593825157315005e+05
-3.976211919799358584e+05
-3.477484150947507005e+05
-3.254372710229699733e+05
-3.702149389150085626e+05
-3.384322238904223777e+05
-3.292316082773599774e+05
-3.330711920556903351e+05
-3.317904771343527827e+05
-3.149174348253032658e+05
-3.298791388773862273e+05
-3.536044354365441250e+05
-3.480291713393044192e+05
-2.054980742208829615e+05
-1.411066647475203499e+05
-2.781523384567463072e+05
-4.052449321074351901e+05
-4.557756964096599258e+05
-4.457263770510423928e+05
-4.186095025190489832e+05
-3.951300243071302539e+05
-3.774318189893816598e+05
-3.687341130526962224e+05
-2.913360069986169692e+05
-2.479899056421193527e+05
-3.392384620156588499e+05
-3.649376610527023440e+05
-3.588812500318140956e+05
-3.545087948406146606e+05
-3.407750943405528087e+05
-3.525652247481406666e+05
-3.740792206151324790e+05
-3.707390090505802073e+05
-3.778018474962267792e+05
-3.860339262160069775e+05
-3.816375467583828140e+05
-3.966069443622899707e+05
-4.452497221642334480e+05
-4.349154087855118560e+05
-3.717422941030988004e+05
-3.591044014707127353e+05
-3.422519205466709100e+05
-3.406621587718748488e+05
-3.759709995745441411e+05
-3.484657379412960727e+05
-3.252459069888782687e+05
-3.453975302450004965e+05
-3.301964497599655297e+05
-3.120177449018333573e+05
-2.989596222335626371e+05
-3.065712907207834069e+05
-3.258997766719495412e+05
-3.324675306134735001e+05
-3.505090845899700653e+05
-3.592284584461352788e+05
-3.672362940563882003e+05
-3.838961983390988316e+05
-4.366174844381455332e+05
-4.296854679913255386e+05
-3.598650086747469613e+05
-3.048022474931789329e+05
-2.127808064807379851e+05
-2.751462047181173693e+05
-2.645019466907617170e+05
-2.656620452395291068e+05
-3.444759472910386976e+05
-3.721830107423879672e+05
-3.531314281748228241e+05
-3.140622105822347803e+05
-3.059542805681485916e+05
-3.216021265462851152e+05
-3.311715449297567829e+05
-3.340161245807954110e+05
-3.491571219794899225e+05
-3.573037344857398421e+05
-2.787401445304222871e+05
-1.687934555143931648e+05
2.524614171634288505e+04
1.234420405849318486e+05
-1.774602516776556149e+05
-4.051144177876282483e+05
-4.568182767147019040e+05
-4.146847237984170206e+05
-3.339862045644295868e+05
-3.882393470700969920e+05
-4.365307859366720077e+05
-4.562811836317155976e+05
-4.188347688064640388e+05
-3.831464489335271064e+05
-3.724601449135218281e+05
-3.675929657551886048e+05
-3.703891484892820008e+05
-3.698313922319593839e+05
-3.795168716020565480e+05
-3.837050399838029407e+05
-4.219037236539020669e+05
-4.376873690804711077e+05
-4.771420577766489005e+05
-4.619039563856639434e+05
-3.656453560317330994e+05
-4.245316269392105751e+05
-3.839208104111618595e+05
-3.825955293536598329e+05
-4.594805370096003171e+05
-3.915675056016169256e+05
-3.182740634998797905e+05
-3.822741387197871227e+05
-3.538315624231313122e+05
-3.194659205173761584e+05
-3.362411061386354268e+05
-3.316541691388968611e+05
-3.236085975722151343e+05
-3.185647058527274057e+05
-3.298768102087638108e+05
-3.365316882505195681e+05
-3.846797204087964492e+05
-4.098844052907287842e+05
-4.410439486833964474e+05
-4.219484991595076863e+05
-3.681020507295737043e+05
-4.190991802268299507e+05
-3.533556496639493853e+05
-3.293139023668565787e+05
-3.649864472765177488e+05
-2.777515964561763685e+05
-1.978196142227518139e+05
-1.773582550827285741e+05
-2.947987138023735024e+05
-3.449973298704368062e+05
-3.895344168984357966e+05
-3.756918263889043592e+05
-3.425699077939605340e+05
-3.326732628576556453e+05
-3.386685423360590357e+05
-3.164813694834494963e+05
-1.929187627773394343e+05
-1.567539928503572010e+05
-1.130060608721032040e+05
-2.119458196882288903e+05
-2.617691974361131433e+05
2.054298952779296087e+05
-1.587746379189910367e+05
-2.414397059224727564e+05
-2.181564438670726959e+05
-4.517960030409973115e+05
-4.479685798776471056e+05
-1.906328493524667574e+05
-2.543155289682379225e+05
-4.417619868969743839e+05
-5.145877956236018799e+05
-4.771083608391140588e+05
-4.252385308475111378e+05
-4.050017124746583868e+05
-4.028580681543955579e+05
-3.898413184993895702e+05
-3.496579939732020721e+05
-3.276712449650692288e+05
-4.456119579698611051e+05
-4.401082787063065916e+05
-4.075343029272356071e+05
-4.697372254702243954e+05
-4.344600993945981609e+05
-4.347649332787648309e+05
-4.350858526707860874e+05
-3.752332074455139227e+05
-3.835753658857601695e+05
-4.110727973784473725e+05
-4.123044618606455624e+05
-4.078472655218851287e+05
-4.541461748788696714e+05
-4.212265743059576489e+05
-3.452216285068223951e+05
-3.238838928925923537e+05
-3.299537649227739312e+05
-3.143682804237124510e+05
-3.632968745486491825e+05
-3.765991343497994822e+05
-3.539026743877672125e+05
-3.414719461781826103e+05
-3.465571521682087332e+05
-4.161337978071697289e+05
-3.449288796975507867e+05
-2.954664679202381521e+05
-2.952823662561981473e+05
-2.899590505588885862e+05
-3.162215591394136427e+05
-3.311188810135161038e+05
-3.116250443849081639e+05
-2.580526514186710119e+05
-1.814028028124890989e+05
-2.186581672544407193e+05
-3.068930162343013799e+05
-3.106571677507974673e+05
-3.252285078355518635e+05
-3.234156702047230210e+05
-3.426161608098974684e+05
-3.561638642396244686e+05
-3.621756163169856882e+05
-3.691493485513336491e+05
-3.568814665778200142e+05
-3.867830646201928612e+05
-3.450766282624758314e+05
-3.351148502773058135e+05
-3.543112003643393982e+05
-3.640794073493297910e+05
-4.168521595040134853e+05
-4.249807266531852074e+05
-3.339793869785462739e+05
-3.351441622284830082e+05
-4.633588305646241643e+05
-4.326696305900285952e+05
-3.362033388449416962e+05
-3.098609913015123457e+05
-3.098810099285761826e+05
-3.053646007993074600e+05
-3.298431405602591112e+05
-3.495794081089349929e+05
-3.423561677832998103e+05
-3.632659308641096577e+05
-3.536139829622393008e+05
-3.595582061409272719e+05
-3.346295871973606991e+05
-3.249326241602252703e+05
-3.460907191563518718e+05
-2.614091023311738390e+05
-1.821927048697446007e+05
-3.224997232800015481e+05
-3.726441970303395065e+05
-1.508794981988491490e+05
2.239875635013722349e+05
4.229789316675486043e+04
-3.243707696712224279e+05
-4.317388494158159010e+05
-4.396923885411266237e+05
-4.202303239423632622e+05
-4.257981033154663164e+05
-4.499665069458377548e+05
-4.027652191461606417e+05
-4.182196949872034602e+05
-4.563540513914816547e+05
-4.561477223150322679e+05
-4.259517057932673488e+05
-4.115231983009206597e+05
-4.140156641635594424e+05
-4.129279859620013740e+05
-4.216127729075816460e+05
-3.678497889410785865e+05
-3.474633640715018846e+05
-3.687648980825227918e+05
-4.412207230416771490e+05
-4.254956755004362203e+05
-3.263179579596210970e+05
-2.426598994802243542e+05
-2.102251016691203695e+05
-2.762166563017173903e+05
-3.495439935252878349e+05
-4.012101289705475792e+05
-3.616092495281954762e+05
-2.578879609399163164e+05
-2.537885797327475157e+05
-3.171113791743330657e+05
-3.312784722253007349e+05
-3.146639371610491071e+05
-2.928437701615835540e+05
-1.924557774489787407e+05
-3.040645270305598387e+05
-3.157564390815231018e+05
-3.510730765659874305e+05
-3.710480433645239100e+05
-4.330890801026409026e+05
-4.349445263016003883e+05
-3.455266148592808750e+05
-3.302935137450235197e+05
-3.756547009096024558e+05
-3.626899127592976438e+05
-3.597246825670804828e+05
-4.155558047259652521e+05
-3.532867797590477858e+05
-3.706180098719156813e+05
-3.733042410752967698e+05
-3.151210914704464376e+05
-3.349442730673290789e+05
-3.189726141595900990e+05
-3.496120296476755757e+05
-3.892330250422090758e+05
-3.668460791002574842e+05
-3.002286462871353142e+05
-3.265999587737100665e+05
-3.435883723166598938e+05
-3.950274661609873874e+05
-3.902677210798230954e+05
-3.173490359442201443e+05
-3.162512802395094186e+05
-3.356203852992518805e+05
-3.567187400660589337e+05
-3.782719720209699590e+05
-3.902650974215837196e+05
-3.173154799604506698e+05
-3.821084822799481917e+05
-4.152486216387173627e+05
-3.585174912594943307e+05
-3.570607441978815477e+05
-3.532418226857897826e+05
-3.617821440215311013e+05
-3.374893462703693658e+05
-3.652355120463753119e+05
-3.331038884374835761e+05
-3.336494846251446288e+05
-3.667463179732109420e+05
-4.311247563585005701e+05
-4.075228642502829898e+05
-3.025506006452338770e+05
-3.323968892345167696e+05
-3.419925623546575662e+05
-2.108165550097139785e+05
-2.132389672674122266e+05
-2.739156733504999429e+05
-1.321577452079445357e+05
-2.974508571714733262e+04
-2.277053866440840065e+05
-2.899914708210451063e+05
-3.264124755523982458e+05
-3.680438846781103639e+05
-3.769448645242284983e+05
-3.825823495431992924e+05
-3.644796983074218733e+05
-3.277222345378145110e+05
-2.006081454385195393e+05
-2.389783426554177422e+05
-3.383599653693386354e+05
-3.817346563278473914e+05
-3.932096804449916817e+05
-4.020213086640783586e+05
-4.000385000217086636e+05
-3.890111692366910866e+05
-4.049518906430355273e+05
-3.719328259566882625e+05
-3.833987260276302695e+05
-4.824416933700693771e+05
-4.238870102599607781e+05
-3.193873894211668521e+05
-3.077149324376968434e+05
-3.554927079110804480e+05
-3.672377691114244517e+05
-3.917177280222094851e+05
-3.740468413768669125e+05
-3.908950588678834029e+05
-4.053188655077315634e+05
-3.915054599536079913e+05
-3.585309969224074157e+05
-3.060773313795365393e+05
-3.768725529024631251e+05
-3.784533993310562801e+05
-3.486009986783242784e+05
-3.431890098763131537e+05
-3.472340826565384632e+05
-2.845902904570364626e+05
-3.474822630087347934e+05
-3.062374367448372068e+05
-2.052019219715083018e+05
-2.676306610097296070e+05
-2.472081634934903122e+05
-3.106948225062026177e+05
-3.000389020806795452e+05
-3.243437795691784704e+05
-3.280387873883552384e+05
-3.794123494907170534e+05
-4.033738949870425276e+05
-4.297056082395379199e+05
-3.819148485120220575e+05
-2.466575790150394896e+05
-3.688377269167117774e+05
-4.093676358500989154e+05
-3.500097577049584361e+05
-3.971850101218840573e+05
-3.926847964170794003e+05
-2.176817210183371790e+05
-3.471224712051113602e+05
-4.252798814994615968e+05
-3.147802427083547227e+05
-1.925150024114003172e+05
-1.147548572920938022e+04
-2.163421458133629058e+05
-3.395866553161689080e+05
-3.824812103983517736e+05
-3.867509296300943242e+05
-4.686912110368444119e+05
-4.977308762074981350e+05
-5.226475784788376186e+05
-4.285848035391194280e+05
-2.365680512350921053e+05
-4.366368561048994306e+05
-4.820956273995228112e+05
-3.557439496868725400e+05
-4.575851068726100493e+05
-4.155891952064749785e+05
-1.611202665827508317e+05
-3.854465624234105926e+05
-4.368143652210272849e+05
-2.943582625363480765e+05
-2.732674424662839156e+05
-2.534849823379351292e+05
-3.740908063432971248e+05
-3.075418299172186526e+05
-3.350988524327776395e+05
-3.397929367415646557e+05
-4.561196698202823754e+05
-4.823973442380786873e+05
-5.000593469818131998e+05
-4.050697034483295865e+05
-1.931813620584190357e+05
-4.431818467887022998e+05
-4.005379868094404228e+05
-2.159756760274550179e+05
-4.072103581849245820e+05
-3.093934909077729098e+05
6.269546347858035006e+03
-3.342321553738389630e+05
-3.435468638846953399e+05
-1.701831295686075464e+05
-2.092313222924692091e+05
-2.001695765092163347e+05
-2.904862556039579213e+05
-1.788523028765987838e+05
-2.179381504091566894e+05
-2.166698284513941035e+05
-3.523052452210832853e+05
-3.810212405451035593e+05
-4.041341577205091016e+05
-2.897331474084258080e+05
-5.071474585880292580e+03
-2.811561323049438652e+05
-2.330004724167254753e+05
-2.365843692608643323e+04
-3.135788284633655567e+05
-1.824758725871946663e+05
1.651699998603502754e+05
-3.059768691813682672e+05
-6.313612975978120230e+05
-8.781580532975737005e+05
-9.822086724067141768e+05
-9.279990873405158054e+05
-9.046940252552224556e+05
-6.930427352743386291e+05
-6.475389942232493777e+05
-4.617480366353995632e+05
-1.746865878343174700e+05
5.804804900446231477e+04
-9.471564960888354108e+03
-7.680218830704200082e+04
-1.808898616597115993e+06
-1.743435516077354550e+05
-2.128615993767450564e+05
-2.010531571687897667e+04
-2.429377254324759124e+05
-5.869121179712237790e+04
-2.826783976711419877e+06
-2.489960162558853626e+05
-1.486470827129360987e+05
-2.933915169285607990e+05
-7.773288652284713462e+05
-5.964341583624836057e+05
-4.049850880545552354e+05
-1.318743757520078216e+05
-1.894607095825105207e+05
-1.210402756546898745e+05
-2.695906875717772637e+05
-3.016781198945306242e+05
-3.293161736721254420e+05
-2.110992498921002261e+05
1.325866397917259019e+04
-2.331875042073978111e+05
-2.701173067873478867e+05
-1.419541809524612036e+05
-3.291567192423257511e+05
-1.069187107839591336e+05
2.154161757099586539e+05
-3.776787736071127001e+05
-2.263279756329338998e+05
-5.160814760704454966e+04
-3.529865763484349009e+05
-4.511181425944587681e+05
-3.186106532382715959e+05
-1.001360187042849138e+05
-2.455535913177230395e+05
-1.779582450320795178e+05
-3.459144792331376811e+05
-3.785946282773627900e+05
-4.246660963798224693e+05
-3.212419175016147783e+05
-1.915794261905945605e+05
1.598420080385555048e+04
-6.037486774555960437e+05
-5.178339054988159332e+05
-5.650002976808333769e+05
-2.884548892429682892e+05
4.507644814312458038e+03
-5.897113075497283135e+05
-3.780394432742954232e+05
-2.186721447849939577e+05
-5.861253350297878496e+05
-7.264098806725607719e+05
-4.873372547351834364e+05
-2.362476626640836475e+05
-4.264112233593892306e+05
-3.043735084293807158e+05
-4.577701170543734916e+05
3.235621104313003598e+05
-2.096591991433270741e+05
-2.182919195342382882e+05
-2.739457963388033677e+05
-3.934591062541846186e+05
-4.367199463692512363e+05
-6.064141579547009896e+05
-4.530926256497366121e+05
-9.471703372859619558e+05
-6.991309755435016705e+05
-1.004031686621090048e+06
-6.335058476471027825e+05
-4.189182805316525046e+05
-7.770217081916953903e+05
-9.312567196300907526e+05
2.640000254321771208e+05
-5.689001383652581135e+05
-6.775623917292638216e+05
-4.243496797878951766e+05
-5.082481930564439390e+05
-4.640139041332551278e+05
-4.994632166105110664e+05
-3.779588441185216652e+05
-4.892703416809588671e+05
-4.091382829286211636e+05
-4.397136480534437578e+05
-7.918632531367925694e+05
-4.345234796043359675e+05
-3.399829694745263550e+05
-1.776148876171312295e+05
1.664849482626958750e+06
-3.837339364042542875e+05
-2.660854450502169784e+05
1.621765864477367606e+06
3.361356190424956381e+06
-4.805263854408748448e+05
-2.916684188537205337e+05
-6.401962590724864276e+05
-3.948546838844220620e+05
-4.918728215881325305e+05
-4.242874402835561195e+05
-4.705103783204592764e+05
-3.470564955832182895e+05
-5.901437891526059248e+05
-3.799365856017631013e+05
-4.165493878140858142e+05
-9.623229020563021768e+05
-5.646310838575022062e+05
-3.606707526688859798e+05
-2.579880382307679392e+05
-6.054609431712685619e+05
-3.586910656643569237e+05
-2.638896124333438929e+05
-6.668713342407331802e+05
-9.316983606041205348e+05
-4.463623166266859043e+05
-2.185362954974703025e+05
-5.189528208359024720e+05
-2.244773766513939481e+05
-3.143422686234858120e+05
-2.317396775984555716e+05
-3.025567189274639823e+05
-1.860287118362291949e+05
-5.608948520918821450e+05
-2.520395917854937725e+05
-2.521644328080170089e+05
-4.790018369397101924e+05
2.728939860787417274e+05
4.315489140254049562e+04
-1.130094261543657631e+05
-3.888855051364048850e+05
-2.571855092471010284e+05
-2.192379423451041803e+05
-5.968651518637974514e+05
-9.133856516454592347e+05
-4.289094471219237894e+05
-2.520222676023242529e+05
-5.694586850035018288e+05
-2.555577031283541583e+05
-3.443843244807908777e+05
-8.527153383914653677e+05
-6.995321672296266770e+05
-4.339199315321168397e+05
-7.967283571540403645e+05
-3.694081919534513727e+05
-4.151377966491214465e+05
-1.230018357062317198e+06
-5.550161270273792325e+05
-4.681004447085559368e+05
-4.551393567240592092e+05
-5.634015171660688939e+05
-4.187414352765738731e+05
-3.652198094341489486e+05
-6.639523413057330763e+05
-9.773453756376525853e+05
-5.066157220059657702e+05
-3.775214819912868552e+05
1.088633963794842828e+06
-3.608667784281425411e+05
-4.164237226413511671e+05
-2.904562543063960038e+05
-3.783093598655408714e+05
-2.426139827490660828e+05
1.575836427428381983e+06
-3.273004509938634001e+05
-4.066837992442423711e+05
4.609771704239094630e+06
-3.505561974624833092e+05
-4.025909004382652929e+05
-7.103028277249583043e+05
-6.319208479709485546e+05
-5.023913284447861370e+05
-4.240760122931374935e+05
-6.217630656847807113e+05
-9.185948310005093226e+05
-4.917124724507742794e+05
-4.006302696808903711e+05
-6.882424923937653657e+05
-3.596883574028667063e+05
-3.922531367265221197e+05
-2.543866943949081469e+05
-3.376560697624470340e+05
-1.841297773884747876e+05
-6.580521142707734834e+05
-2.581763528031358728e+05
-3.368282285175304860e+05
-1.159754158909590449e+06
-4.406034726301104529e+05
3.879083972866628319e+05
-2.429226598970463965e+04
-2.408017875009988202e+05
-2.717135501644765027e+05
-2.600853993807570077e+05
-3.879460054757825565e+05
-6.712941816542010056e+05
-3.480131447169999592e+05
-3.120922389312277082e+05
-5.518903749710512348e+05
-2.527922437757477164e+05
-3.076080108845042996e+05
-1.914437731100207893e+05
-2.363265858560757479e+05
-8.410958942727217218e+05
-9.612494968907035654e+05
-4.346636045534939039e+05
-3.934546948364034761e+05
-1.036999445131323650e+06
-3.707230423649363220e+05
-3.875473964087713975e+05
-3.702599901410676539e+05
-2.434117272239117883e+05
-2.717268047857910860e+05
-2.171857177714871941e+05
-2.739176326103671454e+05
1.480530620508632623e+06
-2.881404266054234467e+05
-3.795603962879108731e+05
-6.432576096267735120e+05
-4.137123111992661143e+05
-4.192767019273636397e+05
-2.921994128121816320e+05
-3.515211222250888823e+05
-2.017973332606400363e+05
-5.274493567974998150e+05
-2.590532684150378918e+05
-3.283599204178280197e+05
-8.730110160351798404e+05
-3.776811079183476977e+05
-4.371282338762402069e+05
-4.265707293559720274e+05
-3.030119429253247799e+05
-3.777598536256153602e+05
-3.267712952195965918e+05
-3.340469699273472652e+05
-5.722020515090824338e+05
-3.931784197173833381e+05
-4.316802073544464074e+05
-5.704557252653823234e+05
-4.188382417986011133e+05
-4.341954757212063996e+05
-3.423920924873426557e+05
-3.984044977714526467e+05
-2.762456097216155613e+05
-5.092992471866459819e+05
-3.416153065006621182e+05
-4.054659016069491627e+05
-7.708662483544184361e+05
-4.462174460454939399e+05
-5.099461341133667156e+05
-4.967503809230418410e+05
-3.960086803018560167e+05
-4.941397379330765689e+05
-4.428850994997837115e+05
-3.571139534297405044e+05
-4.552876040371167473e+05
3.064233970143599436e+03
4.064810616658557556e+05
2.460872904404789442e+05
1.836452330470203888e+05
9.910901231515593827e+04
1.115564524230966344e+05
2.443258410582249053e+04
7.564361964984110091e+04
-9.906225910328258760e+04
-4.899991757345874794e+04
-1.207328757252998184e+05
-3.236555086913059931e+05
-1.758570905394521542e+05
-2.410784683731088880e+05
-2.380603315563549986e+05
-6.567466283850593027e+04
-9.402394583582086489e+04
-1.320855598307619803e+05
-2.691708036843241425e+05
-4.565385890866151312e+05
-4.168726584277192596e+05
-4.708754959528357722e+05
-4.939913704219826031e+05
-4.741142078030151315e+05
-4.772472162715024315e+05
-4.321492341249659657e+05
-4.500038224430466071e+05
-4.005425965696547646e+05
-4.468383253267856780e+05
-4.119763724110228941e+05
-4.307246551466046367e+05
-4.638393013069331646e+05
-4.217740820026984438e+05
-4.451739636763250455e+05
-4.357616865744339302e+05
-3.587723974056713050e+05
-3.433869324031516444e+05
-4.109993700610713568e+05
-3.755282946902804542e+05
-4.727645893772980198e+05
-4.585172323422878981e+05
-4.972676027915553423e+05
-4.636785767544687260e+05
-4.788064665236582514e+05
-4.668344451756454073e+05
-4.361889391954739112e+05
-4.278043212672742084e+05
-3.791967993719715159e+05
-3.575976539078238420e+05
-3.667937208206814248e+05
-3.606138793831944931e+05
-2.937864124065628275e+05
-3.585348182712804992e+05
-3.561238089468826074e+05
-3.412034369244106347e+05
-3.197039202170440694e+05
-3.754896593512302497e+05
-3.445664196358445333e+05
-2.885446825444384012e+05
-3.411744223838362377e+05
-3.432657858553277329e+05
-3.633953030603637453e+05
-2.565910729099229211e+05
-1.427030086408124771e+05
-2.425956217716364190e+05
-3.648759337605569744e+05
-3.622762042976343073e+05
-3.581284950964478776e+05
-2.999399342537998455e+05
-3.273141716751964996e+05
-2.999442801123675890e+05
-5.887340147234406322e+04
-7.418844401527161244e+04
-1.910648615323561244e+05
-3.158153959460213082e+05
-3.449039991663297405e+05
-3.794217758449583780e+05
-3.491425221595116891e+05
-2.604886995914261788e+05
-1.917341768609058345e+05
-2.357282776937409071e+05
-3.966464519044947810e+05
-3.904706200254987925e+05
-4.029012748927627690e+05
-3.237822829129587626e+05
-3.580094714832496829e+05
-3.519682414204010274e+05
-3.701038523699815851e+05
-3.072199243537045550e+05
-3.412205251218513586e+05
-3.286472663258989342e+05
-2.195747379554199288e+05
-3.630024117297081975e+05
-3.317515842258627526e+05
-3.167857800966692157e+05
-3.444165698968186043e+05
-3.718885318847184535e+05
-3.606534508240183350e+05
-3.298060692700783256e+05
-3.300592233790233731e+05
-3.588916124364195857e+05
-3.720180806177468039e+05
-3.269145530295269564e+05
-3.911602252590117278e+05
-3.782668071495909244e+05
-3.721429008501206990e+05
-3.592839731142043602e+05
-4.008156317815613002e+05
-3.527200582031481899e+05
-3.823540504685840569e+05
-3.691245115758094471e+05
-2.893850140580015723e+05
-4.198850524339326657e+05
-3.719683206295510754e+05
-3.256683964504975593e+05
-3.548909458422620082e+05
-3.862623936429546447e+05
-3.802670590637205169e+05
-3.496941294590898324e+05
-3.305658300325309392e+05
-3.685534491823344724e+05
-3.604043021212077001e+05
-3.276641925720194122e+05
-3.743213773886635900e+05
-3.728248879366947804e+05
-3.638652448762784479e+05
-2.932893848632983863e+05
-2.529051346196986269e+05
-1.735413885696448851e+05
-3.351386839387582149e+05
-3.881808841568545904e+05
-3.615364129862360423e+05
-4.492959642253934871e+05
-4.051367701971610077e+05
-3.632935904456749558e+05
-2.659363314374932088e+05
-1.504546646700222045e+05
-2.467770068743029842e+05
-3.706803223181865178e+05
-3.672816808123927331e+05
-4.102945039170293603e+05
-3.883394667506013066e+05
-3.573410217935832916e+05
-3.941718541212250711e+05
-3.005593495286158286e+05
-2.631503296240041964e+05
-3.578809610997696873e+05
-4.150990036924547749e+05
-3.967346580899350811e+05
-3.755929065171573311e+05
-3.634730372233049711e+05
-3.724197957564119715e+05
-4.194346195903561311e+05
-3.738650609151880490e+05
-3.371267107518393314e+05
-3.596104269702560268e+05
-3.667064989237007685e+05
-3.547552641987780808e+05
-3.303756012601156253e+05
-3.085100118909635348e+05
-3.447742050638280343e+05
-3.219066804105895571e+05
-3.064776061104009859e+05
-3.171727274808022194e+05
-3.285515822554843035e+05
-3.353781841237265617e+05
-3.233090432580919005e+05
-3.624914252652800642e+05
-3.656055497766064946e+05
-3.318871997343312250e+05
-3.272067154231760651e+05
-3.688104604577957653e+05
-3.951143559203575132e+05
-3.581398729560964275e+05
-3.244170935159474611e+05
-3.478622939059264027e+05
-3.524616061239487026e+05
-3.360557440590963233e+05
-3.202813007781680208e+05
-3.129283021328812465e+05
-3.437913561945406254e+05
-3.185782885051493067e+05
-3.020694400891342666e+05
-3.208576590941611212e+05
-3.803246252903807908e+05
-4.051146102477067616e+05
-3.582653559090542840e+05
-3.636577387919344474e+05
-3.629046591936668847e+05
-3.311853241478762357e+05
-2.610710891006486490e+05
-6.654550736774690449e+04
9.544607900419482030e+04
-1.251202376826365944e+05
-3.643171115771143232e+05
-4.403902373962308047e+05
-4.396215973516318481e+05
-4.094230729027818888e+05
-3.864324886552388780e+05
-2.736956592326998943e+05
-1.612226362849579891e+05
-2.515613901489529526e+05
-3.798690287964723539e+05
-3.982115882981754839e+05
-4.131015718627483584e+05
-4.166419408236134332e+05
-3.811527154880571179e+05
-2.840929081209528958e+05
-2.796027364015590865e+05
-3.787055540562721435e+05
-3.923157673596984241e+05
-4.260405675773236435e+05
-4.498639597495236667e+05
-4.208677908565895632e+05
-3.894264651702750707e+05
-4.056548256091994699e+05
-3.950745521087849047e+05
-3.617895579469795339e+05
-3.466247793072918430e+05
-3.653257039475878701e+05
-3.843434926487931516e+05
-3.202813419865439646e+05
-3.343980218389305519e+05
-3.324426581302395789e+05
-3.476829239493045025e+05
-3.755192516681018751e+05
-3.414583587716973852e+05
-3.493928850502313580e+05
-3.465890412540350808e+05
-3.442231804541730089e+05
-3.381057723348422442e+05
-3.715834036556874635e+05
-3.756256212499223184e+05
-3.593526170258786296e+05
-3.299008255743770860e+05
-3.541503270157680381e+05
-3.634301901849583955e+05
-3.339970523683761712e+05
-3.175663427071312908e+05
-3.550067095876995008e+05
-3.825382107012066990e+05
-2.648089462494036416e+05
-3.333126221336387098e+05
-3.395207478472238872e+05
-3.424978212188335601e+05
-3.878156046781430487e+05
-3.478856699647824280e+05
-3.469327299793758430e+05
-3.359457556924987584e+05
-3.476070521448662039e+05
-3.260654715725316200e+05
-3.633345339975196403e+05
-3.561415535529995104e+05
-3.533129656379343942e+05
-2.567773602101707365e+05
-1.096997025638467167e+05
-2.069434871969851665e+05
-3.564393134911152301e+05
-3.578064847274180502e+05
-4.148752725124659482e+05
-4.417495104022219311e+05
-2.675802365949404193e+05
-3.742060637201614445e+05
-3.783416235353301745e+05
-2.180608263908668887e+05
-1.711952633604576113e+05
-2.879368646081776824e+05
-3.820292664681731258e+05
-3.725253283016945934e+05
-3.904369047005372122e+05
-3.631747291586901993e+05
-4.080869206261879299e+05
-3.980691184764686041e+05
-4.075914217789452523e+05
-3.573418686028985539e+05
-2.541749176005129702e+05
-2.629728981519551016e+05
-3.761534456715709530e+05
-3.660451666248162510e+05
-4.196462522682868876e+05
-4.434429227795021143e+05
-2.399295115001332015e+05
-3.703752538205333985e+05
-3.710055473080340307e+05
-3.775347945498966146e+05
-4.220916434059091844e+05
-3.908217150349912699e+05
-4.038828199466983788e+05
-3.310892614048145479e+05
-3.041821288686164189e+05
-3.250552235983503051e+05
-3.652444299508447293e+05
-3.416488402555785142e+05
-3.635552520156772807e+05
-3.313135669985895511e+05
-3.462616829147308599e+05
-3.646682237281848211e+05
-3.574592174019704107e+05
-3.336242802087962627e+05
-3.858844027609713376e+05
-4.075996135223908350e+05
-2.173571925949138822e+05
-3.430590026700166054e+05
-3.699735024810857140e+05
-3.402405507270791568e+05
-3.594154130512644770e+05
-3.024963850248570088e+05
-2.908990543579754885e+05
-2.958164310350690503e+05
-3.087222121034835000e+05
-2.938871967928144149e+05
-3.205640131340092048e+05
-3.082741937056605238e+05
-3.427360307749211788e+05
-3.366107754120724276e+05
-3.652726085464656353e+05
-3.829334313965210458e+05
-3.627842224952498218e+05
-2.828086418204691727e+05
-2.041306451867816504e+05
-1.821147701527600875e+05
-2.534342135933961254e+05
-3.665020389182856306e+05
-3.921569027313701808e+05
-3.742251735109949950e+05
-3.602684314636278432e+05
-3.215943272655225592e+05
-3.046280872465313878e+05
-3.239254779873067746e+05
-3.127778422067750944e+05
-3.100550245135633741e+05
-3.196598512586320285e+05
-3.303297188483708305e+05
-3.499751568600179162e+05
-3.591712764200852253e+05
-3.884151488997481065e+05
-3.740944797615779098e+05
-3.577363965214529308e+05
-3.671462509142628405e+05
-3.364218402132019401e+05
-1.947547705793306231e+05
-2.392284346265916247e+05
-3.253291494821688393e+05
-3.958466859919871204e+05
-4.014558489657235332e+05
-3.511220020462472457e+05
-3.453381824290931690e+05
-3.306125180911156349e+05
-3.831031955395524856e+05
-3.490349611841219012e+05
-3.667541465222608531e+05
-3.330064952717071865e+05
-3.703331223323466256e+05
-3.579575881824557437e+05
-3.894282936576722423e+05
-4.229680965107644442e+05
-2.560301345980525948e+05
-3.139319190054223873e+05
-4.152457732330302242e+05
-3.931015040001651505e+05
-4.012326567566426238e+05
-6.292534879529146710e+05
-3.531294727143989876e+05
-3.305867221721052192e+05
-3.553044130572333233e+05
-2.810643067813785747e+05
-3.402567718596962513e+05
-3.225278342060295399e+05
-3.889704728042397182e+05
-3.256991278112146538e+05
-3.763231046658528503e+05
-3.107525311083137058e+05
-3.835914837025693851e+05
-3.325684198331526713e+05
-3.952001146125032101e+05
-4.747161902866251767e+05
-3.935321096160986926e+05
-3.110090270677397493e+05
-3.867507258924029302e+05
-3.148331030350807123e+05
-3.233375294103552587e+05
-7.882635874176546931e+05
-2.251050494995991467e+05
-6.998216652087285183e+03
-1.873879416868047556e+05
-2.276660298056165921e+05
-3.350643510884754360e+05
-3.203285687476054300e+05
-4.147513716104109772e+05
-3.300062622735733166e+05
-4.295116279941682005e+05
-3.130523462477074936e+05
-3.348896061172385234e+05
-2.326484456990263425e+05
-3.778388160964051494e+05
-4.838191947774718283e+05
-3.663265034931609407e+05
-2.270266064074062742e+05
-3.406123094956381246e+05
-2.169610228134463541e+05
-2.171752340889696497e+05
-9.173494716663209256e+05
-1.948931755342036486e+05
-1.121655216948308516e+05
-2.462441878785192966e+05
-1.162570333499226253e+05
-2.568757514312465210e+05
-2.422147210879139602e+05
-3.521488352263784036e+05
-2.374717919505769387e+05
-3.348384037744548405e+05
-1.853972396135759773e+05
-3.346550942051892634e+05
-2.026004743224182166e+05
-3.762049699281791691e+05
-5.129744802123138215e+05
-3.540377069724478060e+05
-1.578485185486382106e+05
-3.099171129956233781e+05
-1.804840772174899466e+05
-1.909827732387064025e+05
-1.100275015206536744e+06
-2.002459720006323187e+05
-8.831460272943542805e+04
-2.629580729983121855e+05
-1.198755704868821194e+05
-3.134776354162220377e+05
-3.239252549824209418e+05
-4.300303636208323296e+05
-2.833617943558107363e+05
-3.919529876309067477e+05
-2.158264128395710140e+05
-3.967812493502186844e+05
-1.894783655284891138e+05
-2.521326110879821936e+05
-4.364129589094712865e+05
-3.931743673097456340e+05
-1.876205784262712114e+05
-3.649451447820153553e+05
-2.204520037573012523e+05
-6.582802650019435678e+05
-2.105485295588171110e+06
-1.043416260448267101e+06
-8.580265621941679856e+05
-1.014555311262658797e+06
-8.113786861028017011e+05
-9.446877645715952385e+05
-3.828940362637590151e+05
-1.660630383733581984e+05
-2.169889351228615269e+05
-4.701236519130594097e+05
-3.142639497707185801e+05
-5.220119950340160867e+05
-3.281008250601264881e+05
-5.746553711605921853e+05
1.624131811887102900e+06
-5.480999639296950772e+05
-3.123960341177569935e+05
-4.712522885478571989e+05
-2.960541826391943032e+05
-1.103469010904547293e+06
7.100099236738570966e+06
-6.177043806321664015e+05
-3.792451516812148038e+05
-5.334692877500277245e+05
-3.609987763277055928e+05
-5.874573682521830779e+05
-5.796017741566862678e+05
-6.551815880050077103e+05
-5.660509780594429467e+05
-6.719470659966481617e+05
-4.643849556354088709e+05
-6.266957433151754085e+05
-3.909409904158224817e+05
-5.637825614001813810e+05
-7.000427256901285145e+05
-5.966451899121465394e+05
-3.327706561114669312e+05
-4.684681955477397423e+05
-2.642280323069030419e+05
-2.748524339644950815e+05
-1.338745965989170130e+06
-3.190950646476352122e+05
-1.718815044785836944e+05
-3.848667309566243785e+05
-2.675840142790880054e+05
-5.023733929111442994e+05
3.112425389869892970e+05
-8.240134124189116992e+05
-6.381330281444897410e+05
-6.617706252067084424e+05
-4.221922312224304769e+05
-5.260066699822780211e+05
-2.730159620210328139e+05
-4.158970599060235545e+05
-5.278627480617590481e+05
-4.538348479545932496e+05
-1.910792638450919185e+05
-2.870822971040229313e+05
-9.821831087344279513e+04
-1.068214478583714226e+05
-1.037589527617461281e+06
-1.518107866665748879e+05
-5.599630037735798396e+03
-1.864182679285393097e+05
-1.010628056028746068e+05
-3.039297601420171559e+05
-3.073241086508759763e+05
-3.260168395982750226e+05
6.121917188092469005e+05
-4.977535826911404729e+04
1.754351561255310662e+04
-1.600793168122253846e+05
4.588111134957731701e+04
-1.247465387896937318e+05
-2.476059703318860848e+05
-1.108436937605361454e+05
-5.383700487783038989e+05
-9.349132846828401089e+05
-7.479126325754658319e+05
-7.738970114653243218e+05
-1.526435340084537864e+06
-7.874835241736061871e+05
-5.968915755736888386e+05
-5.379108204235977028e+05
3.406840817746752873e+04
1.116755060359565541e+05
9.201738668491505086e+04
7.018097276320634410e+04
2.908556958798645064e+04
-5.510655985288158990e+04
4.112874891177040990e+04
-2.344245762832965702e+05
-5.019132771181154530e+05
-7.436294813205501996e+05
-7.933811350888432935e+05
-7.761414186216851231e+05
-5.551118160060402006e+05
-5.466470739019734319e+05
-4.174142215090978425e+05
-4.156019775971972849e+05
-9.082086031853077002e+05
-4.330366648684074171e+05
-3.040251345713210758e+05
-3.872757920920606703e+05
-3.711482391740311868e+05
-4.721154183270032518e+05
-4.765417334457458928e+05
-4.470835852691689506e+05
-4.822107021949967602e+05
-4.929556158769340254e+05
-4.043635168974180706e+05
-4.090361823617587797e+05
-2.738931952019003220e+05
-3.405626880963315489e+05
-4.001883460803679191e+05
-4.724910050678371917e+05
-3.490768366988659836e+05
-3.428601632750487188e+05
-3.008046661164233228e+05
-3.383875350719942944e+05
-6.419662513926432002e+05
-4.105383082524263300e+05
-3.194977868038467132e+05
-3.818358549591389019e+05
-4.126512978968666866e+05
-4.727403161297645420e+05
-4.916062750403915998e+05
-4.666881208925319370e+05
-5.321058661998361349e+05
-5.381275943378261290e+05
-5.031444145208238624e+05
-4.820048806466014357e+05
-3.979149410784973297e+05
-2.962669192780578742e+05
-2.358110364241572097e+04
4.160228801796419430e+05
5.375761157048785826e+05
2.963385273126367247e+05
1.848859692156719975e+05
8.787599909254210070e+04
-8.116975188904115930e+04
-7.655184437190345488e+04
-3.602846295533282682e+04
-9.586101187993772328e+04
-1.623887843897794373e+05
-1.928991840925554279e+05
-2.280514446320633870e+05
-2.316507262103455141e+05
-3.131091594018724281e+05
-1.604741375648446847e+05
-1.756334492639976088e+05
-2.783136825723781949e+05
-2.843305847042265814e+05
-2.602806298717141617e+05
-3.505071983073286247e+05
-4.925182301482468611e+05
-4.794837701928317547e+05
-4.258359504370214418e+05
-4.531505027562835021e+05
-4.968601153247015318e+05
-4.261765309060933068e+05
-3.851780609651703853e+05
-4.332697338972169673e+05
-4.706657082912271144e+05
-5.120957009070918430e+05
-4.656623265574509278e+05
-4.610834250840377063e+05
-4.362533748555588536e+05
-4.940726790612891782e+05
-4.588045182764560450e+05
-4.584532427026607329e+05
-4.023425049347827444e+05
-3.909725976236293791e+05
-3.766732829965907149e+05
-3.988448976442748681e+05
-5.079426819352277089e+05
-5.081679833588902839e+05
-4.287979472987757763e+05
-4.721009743704957655e+05
-5.314115697333677672e+05
-4.302919174511776073e+05
-5.310875813782224432e+05
-4.498620087033689488e+05
-4.410295805621546460e+05
-4.747790092932116240e+05
-3.951580414903252386e+05
-3.808284652456303593e+05
-3.607017624035535846e+05
-3.953458428331653122e+05
-3.535300152369018178e+05
-3.559279062602103222e+05
-2.967506539637983078e+05
-2.988922855974922422e+05
-2.644275872039080132e+05
-2.958312066092872992e+05
-4.010925226705759997e+05
-4.089428156067712698e+05
-2.548101977024513762e+05
-1.017889677609170321e+05
1.792161268385847798e+05
7.635381154487687163e+05
4.578550820648481604e+05
-1.055239737869672244e+05
-2.081529011243120767e+05
-3.079213798617554130e+05
-5.071525029548136517e+05
-5.727824329253594624e+05
-4.755002304324824363e+05
-4.324994737487726379e+05
-4.288238813679601299e+05
-4.216684784593028016e+05
-3.592882215198051417e+05
-3.741993152686343528e+05
-3.410767925461351406e+05
-3.733833898581557442e+05
-4.590684772150139324e+05
-4.744438139902130933e+05
-3.839495871069873683e+05
-4.053792189899099758e+05
-4.885294815338758053e+05
-3.916460192417858634e+05
-4.318467297425856814e+05
-3.553041049754915293e+05
-3.713827287690523081e+05
-3.791586347852034960e+05
-2.973175631125471555e+05
-3.083368488918667426e+05
-3.244670729091616813e+05
-3.208420937955159461e+05
-2.787555613941279007e+05
-2.697974509105939651e+05
-2.435729676968806889e+05
-2.661106047608312219e+05
-2.416854460892743664e+05
-2.909462091457709903e+05
-3.603891306176985381e+05
-3.693404797344063409e+05
-2.996610294496093411e+05
-3.183897892941518221e+05
-4.178436505031753331e+05
-3.873885562838809565e+05
-3.747730639073549537e+05
-3.087892608011714183e+05
-3.513697307758666575e+05
-3.485015026320328470e+05
-2.861666355960153742e+05
-3.179287235120651312e+05
-3.611167357533376198e+05
-3.571643319535061019e+05
-3.246599944911466446e+05
-3.084719624501401559e+05
-2.852861958701632684e+05
-3.079809362119480502e+05
-3.004045070870855125e+05
-2.932981353486555163e+05
-2.442938327873961534e+05
-3.510063643290599575e+05
-3.535232822589536663e+05
-3.734981097873202525e+05
-4.676231543944258010e+05
-6.066274756024563685e+05
-1.032403087978413329e+06
-6.274832510241366690e+05
-4.527308255768171512e+04
-8.298614327974780463e+04
-2.404215437047517626e+05
-3.092867460928788641e+05
-3.522141664841034217e+05
-3.438205187670836458e+05
-3.222070058634877205e+05
-3.215510169075655285e+05
-3.249958283462352119e+05
-3.438181981451059692e+05
-3.487575677311288891e+05
-3.410207938364853617e+05
-2.727000336601056624e+05
-1.036588989763273858e+05
-2.590117736544655636e+05
-3.354316705547892489e+05
-2.356326815043411916e+05
-2.733115613537256140e+05
-3.406952065371031640e+05
-4.032915255752068479e+05
-4.999526243746997789e+05
-4.557232332478398457e+05
-4.056789018639293499e+05
-4.024677555738433730e+05
-3.834786822903361171e+05
-2.928039930035718717e+05
-4.246973704638513736e+05
-4.966150841966129374e+05
-4.849304009811586002e+05
-4.074388096006328706e+05
-4.270747698400235968e+05
-3.903476564708745573e+05
-3.611382979202362476e+05
-3.956245858522600029e+05
-4.107567572498412337e+05
-3.953694160064725438e+05
-4.191604800166053465e+05
-4.254740999849964865e+05
-3.213499653238477185e+05
-3.443761594102773815e+05
-3.962634064219943248e+05
-3.295956452179010957e+05
-2.869257798059947090e+05
-3.057596456133819884e+05
-3.213008289924864657e+05
-3.228458334211875917e+05
-3.184828341339390026e+05
-3.441483802590497071e+05
-3.543321423534755595e+05
-3.698632609341589268e+05
-3.897577224301742390e+05
-2.657436766745252535e+05
-2.103562032335437834e+05
-2.827239059196468443e+05
-3.488359216669481248e+05
-3.441326972128886264e+05
-3.289060318827028386e+05
-2.901225194667737233e+05
-1.740355676401623059e+05
-2.333125923058009939e+05
-2.914105893500347156e+05
-2.150063474974209676e+05
-1.294440363359982148e+05
-7.099198621535114944e+04
-3.296699562866170891e+04
-4.918464862385718152e+04
-2.415107528929905966e+05
-3.337997035289151827e+05
-3.594434955275913235e+05
-3.899974719812155236e+05
-4.266151084849818144e+05
-2.387543165392156225e+05
-1.568788113675722852e+05
-2.726210986075514229e+05
-3.843627692472401541e+05
-3.802707833397854120e+05
-3.169447494230441516e+05
-2.498580583345433697e+05
-1.544228208184844116e+05
-2.814651101970218588e+05
-3.495907930694690440e+05
-2.764811231437434908e+05
-2.399814624553719768e+05
-1.968686153356601717e+05
-2.035041321425093338e+05
-2.591164986739752349e+05
-3.223098807898992673e+05
-4.282550916335261427e+05
-4.817288556996393017e+05
-5.185723901509905700e+05
-5.749032911486286903e+05
-3.583116720567801967e+05
-2.632853805484862532e+05
-4.210452698347091209e+05
-5.859057780288094655e+05
-6.104500842914190143e+05
-5.018776492158212932e+05
-4.020332958656384144e+05
-3.198359166340255179e+05
-4.775939808054852765e+05
-5.453692621294019045e+05
-4.723824617530105170e+05
-4.309450721692552324e+05
-3.398018965366806369e+05
-3.368573215487158159e+05
-4.215653076673783362e+05
-5.112393595372983254e+05
-6.473403966807664838e+05
-7.047192931123615708e+05
-7.439728351371777244e+05
-8.220998224693324883e+05
-5.719290591380299302e+05
-4.624514617434449028e+05
-6.425936105061972048e+05
-8.287565920218722895e+05
-7.834913388744733529e+05
-3.012701527155535296e+05
-2.850274682032031706e+05
-5.322428702998366207e+05
-7.710667071646798868e+05
-7.206496887277420610e+05
-3.154183197852647863e+05
-2.243779896378426347e+05
3.557941817006585188e+05
3.038694634899855591e+05
-1.235533356966892025e+05
3.937655278638367308e+05
6.880630774745142553e+05
3.944561838087160140e+05
4.695606842200819519e+05
5.676954652588126482e+05
-4.965773526985754725e+05
-1.242706977054846240e+06
-8.770532648610130418e+05
2.182763911671354435e+03
-1.411915511976643465e+05
-2.023631001999966102e+05
7.273470476042262744e+05
7.756242466351994080e+05
9.208758204787960276e+05
1.593551372091231169e+05
-1.546218695441297488e+06
-1.671195784362389240e+06
-1.333408961641978705e+06
-9.549939557179529220e+05
-5.481405361367120640e+05
-3.844831034652746748e+05
4.445414483608829323e+04
6.663716929786803667e+05
5.189351127433257643e+05
8.339105871485190000e+05
3.398883128525256179e+05
4.864246604892727337e+05
9.619748945048097521e+05
1.167910014047266450e+06
1.265159578277274035e+06
7.255051915834483225e+04
-1.768176698194174794e+06
-1.715768157184454845e+06
-9.528363682966767810e+05
1.518308217145142844e+05
9.692937342124155257e+05
7.432815334890247323e+05
-1.075936968755478505e+06
-1.435274140747990459e+06
-1.136169972504716599e+06
-1.226458503780438565e+06
-1.467775263297971571e+06
-1.447755177751245210e+06
-1.376547583935584407e+06
-1.330140578197133960e+06
-1.022076436614901992e+06
-8.481353386615077034e+05
-9.405676557527834084e+05
-1.054311441167879384e+06
-1.033292838450924493e+06
-7.322825801158477552e+05
-3.788324825718842912e+05
-3.889578243178846315e+05
-5.996192368839541450e+05
-6.224289356398647651e+05
-5.616225675799725577e+05
-4.441254896665860433e+05
-1.507060380966404919e+05
-8.687946650653192773e+04
-1.670591654926454648e+05
-2.219890132402116433e+05
-3.185112088310739491e+05
-3.798601582904702518e+05
-4.035902338647693396e+05
-3.830456170315649360e+05
-1.009798177966114599e+05
7.859110343935154378e+04
-1.979613506798588205e+05
-4.299499609706012998e+05
-4.643630775409215130e+05
-2.659447559218250681e+05
-1.179674828001274727e+05
-8.433316392842587084e+04
-2.384497577875200659e+05
-2.452045497812870890e+05
-8.263856898659467697e+04
-3.646201726068113931e+04
2.909501412350474857e+04
1.376444603027706034e+04
-9.598075373653741553e+04
-1.487292760282452218e+05
-2.308452826194504742e+05
-2.480140739173921756e+05
-1.827826466960497200e+05
-3.491494118208074942e+05
-2.634598425824251026e+05
-2.152838311350587755e+05
-3.171944828852456994e+05
-4.378910269791972823e+05
-4.769236531678080792e+05
-3.266562100301932078e+05
-2.070637280701035634e+05
-2.014203309558320325e+05
-3.383019122684081085e+05
-4.056862369874715805e+05
-4.573582078353329562e+05
-4.064427599902113434e+05
-1.876927691681005526e+05
-1.688578146307456773e+05
-2.385825344402656192e+05
-2.781604981397795491e+05
-3.345843811010785867e+05
-3.567897320654108189e+05
-4.112888016319447197e+05
-4.601227246928527020e+05
-4.154415998656514566e+05
-4.349481155860875733e+05
-4.721512220618915744e+05
-4.585182064901912818e+05
-5.160601262883925810e+05
-4.284472860501368996e+05
-3.390609823917262256e+05
-3.443525064151606057e+05
-4.394690712439125637e+05
-4.841065689463925082e+05
-5.392537550307018682e+05
-4.985852629982933868e+05
-3.391925845969832735e+05
-3.268159686326803640e+05
-3.475224457702653017e+05
-3.583624858482684940e+05
-3.822668549722798634e+05
-4.069972909549127799e+05
-4.357918871506722644e+05
-4.464154558555467520e+05
-4.158577402283784468e+05
-4.102826093546587508e+05
-4.302941266414925922e+05
-4.025177640136667760e+05
-3.530929369898242876e+05
-3.294148253427597228e+05
-3.528444560455407482e+05
-2.994600897726707626e+05
-3.073862815820965916e+05
-4.258144586833899375e+05
-2.494621975254897261e+05
-2.527838402886318509e+05
-3.735054004676919430e+05
-2.696612603707495145e+05
-3.444326168225894216e+05
-3.721296728749187896e+05
-3.657894544509942643e+05
-3.738827757503443863e+05
-3.849687254231953993e+05
-3.671105523976440309e+05
-3.628379897052968154e+05
-3.614678399971167091e+05
-3.463611694318394875e+05
-3.661093783613776322e+05
-3.759947034673290327e+05
-3.433987501172409393e+05
-3.176302410314711742e+05
-3.389202797360817203e+05
-3.509627123436330585e+05
-3.493455581447102595e+05
-4.131248292948935414e+05
-4.048193703688220121e+05
-3.533479957512860419e+05
-3.532092840961627662e+05
-3.128409635085314512e+05
-2.668061018597322982e+05
-2.584897040291489102e+05
-2.705661757418283960e+05
-2.928800289773540571e+05
-2.721118343889175449e+05
-2.839126977093461901e+05
-2.914008133271307452e+05
-2.700542009812754113e+05
-2.648512656636501197e+05
-2.665981355024318909e+05
-2.709385993086516391e+05
-2.768744247039051261e+05
-3.050193627123746555e+05
-2.943421027939952910e+05
-2.863071800319359172e+05
-3.542248937472132966e+05
-3.698439944692790741e+05
-3.784705776757821441e+05
-3.888291855066688731e+05
-3.354401717367896345e+05
-3.071147425968570169e+05
-2.806421132893143222e+05
-2.789737568542518420e+05
-3.001477601330440957e+05
-2.846422184026712785e+05
-3.162826158209559508e+05
-3.316113198856352828e+05
-3.062245003823842853e+05
-2.762963840079137590e+05
-2.743653304957160726e+05
-3.351916203837547218e+05
-3.657466288820519112e+05
-3.354748060415005311e+05
-2.364748001499704551e+05
-2.347781791008033324e+05
-3.884089139268670697e+05
-4.463301538899701554e+05
-4.941253068746204954e+05
-4.917645957340667956e+05
-3.586901281193463365e+05
-3.827761994633729337e+05
-3.862404189453024883e+05
-3.820730988594108494e+05
-3.923004546237776522e+05
-3.571432933576207142e+05
-3.797346816392376786e+05
-3.948539150207864586e+05
-3.537622742724110140e+05
-3.382991953056759667e+05
-3.414431081919148564e+05
-3.697222391457799822e+05
-4.084776057286888827e+05
-4.420679749595299363e+05
-4.285580256424049148e+05
-3.734452711711777374e+05
-2.083828376777182566e+05
-1.639431866597803310e+05
-4.761996883104753215e+04
-1.478829925552033819e+05
-4.385147485126651591e+05
-4.716717376584156882e+05
-4.418144513782542199e+05
-4.130862472701037768e+05
-2.648405315810046159e+05
-3.073032346366883721e+05
-4.131758725044929888e+05
-4.211551253421598813e+05
-3.868041634783659829e+05
-3.638928503837108146e+05
-3.611574836087746080e+05
-3.866335578749268316e+05
-4.224883494892392773e+05
-4.300175446868361905e+05
-3.773465539642940275e+05
-3.486747831464705523e+05
-3.778962940857827198e+05
-4.037320258099401835e+05
-4.666242388013034360e+05
-4.731542023359164596e+05
-4.042496811330822529e+05
-3.562864599617479835e+05
-3.357455592602137476e+05
-3.311639868817145471e+05
-3.297965314050756861e+05
-3.117254961640532129e+05
-3.054486001977603883e+05
-3.018703415686807130e+05
-2.868227662802285049e+05
-2.777422481006938033e+05
-2.741171111413286999e+05
-2.939031017205428798e+05
-3.370947380147776566e+05
-3.512893929644082673e+05
-3.142451499040222261e+05
-2.988370192430812167e+05
-3.066494710723231547e+05
-2.691848634591141017e+05
-2.219920326726714848e+05
-1.973957313319069799e+05
-3.253096446350496262e+05
-3.519661360131630208e+05
-3.441537656182994833e+05
-3.415128405092079192e+05
-3.489675940750676673e+05
-3.375543736730187666e+05
-3.303694398232344538e+05
-3.295582855487593915e+05
-3.323839230563982856e+05
-3.268784040593141690e+05
-3.256650006118195597e+05
-3.107622283100502100e+05
-1.767786774236351484e+05
-1.579882507151809987e+05
-3.107374167364763562e+05
-3.553181780590778217e+05
-3.756373447870372329e+05
-3.953960153559339233e+05
-4.326581830937566701e+05
-3.922222257816819474e+05
-2.265617390792439692e+05
-2.945596131947642425e+05
-3.483664254125378793e+05
-3.609159132624054328e+05
-3.535389521868336014e+05
-3.461364102757670917e+05
-3.378696008690115996e+05
-3.540781034438338829e+05
-3.801635521537299501e+05
-3.721697627680312144e+05
-3.602299193568165647e+05
-3.599524467668115394e+05
-3.883123868169509806e+05
-3.987318200003241654e+05
-3.705600219687460922e+05
-3.671345405566170812e+05
-3.766997436258704402e+05
-3.920018805068662623e+05
-4.141974228085698560e+05
-4.104842465922690462e+05
-3.652382280591978924e+05
-3.174162337929168716e+05
-3.266134405397053342e+05
-3.347480772420797730e+05
-3.286263035461255349e+05
-3.247904211035864428e+05
-3.284549675263206009e+05
-3.524745061456812546e+05
-3.614327161898587365e+05
-3.720799840027617756e+05
-3.714126200675375294e+05
-3.749562102858729195e+05
-4.043643174049772788e+05
-4.186604915989189176e+05
-4.118615327358362265e+05
-4.120986455702884123e+05
-3.406107140296169091e+05
-3.234725775090224342e+05
-3.828867196974256076e+05
-3.852604413293483667e+05
-3.317323262929487973e+05
-2.123126989209710155e+05
-1.156589063671618933e+05
-9.338058204139373265e+04
-2.622507719317860901e+05
-3.219946291864078958e+05
-3.517941287707134616e+05
-3.771224504135993775e+05
-4.205703779502334073e+05
-4.031334589677674230e+05
-3.763660550348785473e+05
-3.727667955812301952e+05
-3.858278193018990569e+05
-3.935299439787180163e+05
-3.598674336607609876e+05
-3.494486760407253169e+05
-3.628316599099803716e+05
-3.865037546261616517e+05
-3.802949931533858180e+05
-3.725125980639602058e+05
-3.253851429556473158e+05
-2.564228307503515389e+05
-2.673346072724042460e+05
-2.777004957552154083e+05
-2.593569653422548436e+05
-2.527842180321960477e+05
-2.691849112045195652e+05
-3.244311737853379454e+05
-3.958762235460414086e+05
-3.824036505911909044e+05
-3.590995921955113299e+05
-3.592650122833570931e+05
-3.579254152990458533e+05
-3.612995815927188378e+05
-3.412239741286977660e+05
-3.252197745327586308e+05
-3.318666990552552743e+05
-3.598146179149074014e+05
-3.397589264211433474e+05
-3.097116251296931878e+05
-2.635515213586319005e+05
-2.011797817639316199e+05
-2.168577340202064952e+05
-2.400502941609243862e+05
-2.342900962078431621e+05
-2.281321560518691549e+05
-2.496393801887617446e+05
-3.143337218379278202e+05
-3.925556112304527778e+05
-3.810908210212306585e+05
-3.643033596543979365e+05
-3.660116745924202260e+05
-3.597383633731438313e+05
-3.314944479982572375e+05
-2.812509083873126656e+05
-2.714539328062105924e+05
-3.509330331346796593e+05
-3.870972101582796313e+05
-3.639533652639130596e+05
-3.548004250080236234e+05
-6.502426635169247165e+05
-1.062378382952920627e+06
-1.075139746828759089e+06
-1.027125699888688745e+06
-9.674932934720972553e+05
-8.441604193472862244e+05
-6.663735997280515730e+05
-2.961614331844204571e+05
1.831878453094440047e+05
8.381341890954086557e+04
-1.137672675294021610e+05
-1.592491915027101059e+05
-1.619016432094307384e+05
-1.734124561478059040e+05
-1.868649008107043337e+05
-2.002832746184971184e+05
-1.420142779822926968e+05
-3.917898793182568625e+04
-1.173313630385576980e+05
-2.402334341077888384e+05
-2.356154645632398315e+05
-1.811258294016397558e+05
-1.879297506747883745e+05
-1.814246568278076593e+05
-9.601845963773620315e+04
-2.100797972409015056e+05
-2.782723863379403483e+05
-3.481529567247512750e+05
-4.302448798298717011e+05
-4.222317696282039396e+05
-3.951702118443230866e+05
-3.978878258842935320e+05
-3.892221779232603731e+05
-3.749634383212397806e+05
-4.156708611934095388e+05
-4.311733784598060884e+05
-3.545880708570522256e+05
-3.495172231423120247e+05
-3.654572511014444754e+05
-3.547145590115085943e+05
-3.214460987321506254e+05
-2.749922138333723415e+05
-2.782212399766084272e+05
-2.932818450810810318e+05
-3.041113391598975286e+05
-3.018607923954555299e+05
-3.190213826448328327e+05
-3.819767720286464319e+05
-4.564503789653126150e+05
-4.447150649186561350e+05
-4.164251602249621646e+05
-4.219456038559456356e+05
-3.823870138521792833e+05
-3.533963164759159554e+05
-3.713782003199260216e+05
-3.894149684565655189e+05
-3.971460427046164405e+05
-3.983259418946226360e+05
-3.790220646863179281e+05
-3.728713048863928998e+05
-3.319931790392266121e+05
-2.948851080506809521e+05
-2.948831273163007572e+05
-3.011059525407841429e+05
-3.206849770411278587e+05
-3.161006955229283776e+05
-3.167733002679024357e+05
-3.643950294760639081e+05
-4.180766249761404470e+05
-3.500913395494504366e+05
-2.323502254937144462e+05
-1.915525014475575881e+05
-3.097894988226266578e+05
-3.587197567484604660e+05
-3.858342634542873129e+05
-3.971812324903929839e+05
-4.062679665171289816e+05
-3.936241669839363312e+05
-3.661373320690375986e+05
-3.673958215158218518e+05
-3.389430228265195619e+05
-3.065747321612793021e+05
-2.927330652068828931e+05
-2.940685673518406693e+05
-3.139040404640911147e+05
-3.085608486239379272e+05
-3.196524368386932183e+05
-3.547036317717037164e+05
-3.713151864995663054e+05
-3.900393230716630351e+05
-3.715475685631779488e+05
-3.741564169025811134e+05
-3.340990390927981352e+05
-2.874356031491290778e+05
-3.222289338116419967e+05
-3.444723291488145478e+05
-3.795914061394353630e+05
-3.694341599768218584e+05
-3.578913020266058156e+05
-3.571189563971355092e+05
-3.219991649632491171e+05
-2.932950188685123576e+05
-2.955310255331537919e+05
-2.927262972425834741e+05
-3.171347029590371531e+05
-3.089311571335603949e+05
-3.216000774733733851e+05
-3.403261210954495473e+05
-3.084361859485385939e+05
-3.785359828075540718e+05
-3.827916484749112278e+05
-3.799437695566636976e+05
-3.373220466787039768e+05
-2.947373950162136462e+05
-3.470520258542962838e+05
-3.723705021859873086e+05
-3.959473904930835124e+05
-3.790241767170601524e+05
-3.833173798967752373e+05
-3.855568860288320575e+05
-3.593971386491147568e+05
-3.118009211112207267e+05
-2.999334503216627054e+05
-3.107851028850013390e+05
-2.940482756013751496e+05
-3.346859805124413688e+05
-3.580384758444894105e+05
-2.851124828351420583e+05
-2.508055791856800206e+05
-3.884830004257173277e+05
-3.778309331451796461e+05
-3.605945713523781160e+05
-4.436993195711828303e+05
-6.322100062260427512e+05
-3.669307808560675476e+05
-1.782898384905976709e+05
-1.545875498108232860e+05
-3.088400845848703757e+05
-3.400048553147662897e+05
-2.196430471747387201e+05
-3.109722978483473416e+05
-3.596005604835185222e+05
-3.817754251426984556e+05
-3.708744675791617483e+05
-3.866640489936539670e+05
-3.621876588465396781e+05
-3.623574214348774403e+05
-3.298213097747471184e+05
-3.722931754234316759e+04
-1.992327104517603293e+05
-3.816108976231282577e+05
-3.882859956376715563e+05
-3.609137607879623538e+05
-3.110550979478228837e+05
-3.683548507622779580e+05
-3.765753406421251129e+05
-4.177033636831177864e+05
-3.991788777131934185e+05
-4.036264844692342449e+05
-4.072198613197056111e+05
-3.868948940478683216e+05
-3.811367377800681861e+05
-3.862180304522260558e+05
-3.567804437534953468e+05
-3.640509157632531133e+05
-3.511054293115111068e+05
-3.622246693115845555e+05
-3.492724397715993691e+05
-2.375249003344466910e+05
-3.375426774683331605e+05
-3.333784207364674658e+05
-3.158282773196741473e+05
-3.078612924962122925e+05
-2.687550540531573351e+05
-3.297723299451819621e+05
-3.315195586212230846e+05
-3.848232618681326276e+05
-3.678089362122417660e+05
-3.536409053180811461e+05
-3.830880577176017687e+05
-3.484922969267736189e+05
-3.277418966728001833e+05
-3.509262778526686598e+05
-3.618725022257448873e+05
-3.662080684208183084e+05
-3.578590697086374275e+05
-3.621145597897053231e+05
-3.437494411213169806e+05
-2.894750494035338052e+05
-3.566334126021815464e+05
-3.499629787992041092e+05
-3.314435243009265978e+05
-3.229081708776406012e+05
-2.973994214555324288e+05
-3.286160068042359781e+05
-3.078716145599258598e+05
-3.826799578955918550e+05
-3.322994709169322159e+05
-2.286475224690122996e+05
-1.746942114399925340e+05
-2.703136045805957401e+05
-4.034009869527985575e+05
-4.142367790583556052e+05
-3.969079693917459808e+05
-3.753969892795099877e+05
-3.682542233577984152e+05
-3.617730995882337447e+05
-3.692545471062038559e+05
-4.178299139761014376e+05
-3.955266513810032047e+05
-3.773908302628220990e+05
-3.572640312669223640e+05
-3.335990901692383923e+05
-3.303518533655247884e+05
-3.447441903402870521e+05
-3.055327972885852214e+05
-2.114820661872462370e+05
-1.409133306422603782e+05
-2.418770708578205667e+05
-4.013811155569085386e+05
-3.955006070660714759e+05
-4.137338381253152620e+05
-4.081367938022906892e+05
-3.954733880493351026e+05
-3.458473019487179117e+05
-3.439969592423762660e+05
-3.230163558256344404e+05
-3.637009122942005051e+05
-5.477711414975910448e+05
-3.512737455615178915e+05
-2.132779045131353196e+05
-3.320855264730748022e+05
-3.299027317400310421e+05
-3.537479745347688440e+05
-3.349103778753920924e+05
-3.170575532457598019e+05
-3.661502004762832075e+05
-3.987437544397765305e+05
-3.012635985862608068e+05
-3.890904064176493557e+05
-3.744062225928478874e+05
-3.168946114643622423e+05
-3.021615244410301093e+05
-3.431381250482285395e+05
-2.937054488778810482e+05
-3.078982946582017466e+05
-2.658190392220579088e+05
-3.389626917094966630e+05
-6.828485798050926533e+05
-3.575752380490493961e+05
-3.024512489493954927e+05
-3.274903188550313935e+05
-2.744683669484475395e+05
-3.328098578468754422e+05
-2.849579668398960494e+05
-3.031136573601772543e+05
-3.156728786928096088e+05
-3.691722348043809179e+05
-2.392331515254742699e+05
-2.743762029534785543e+05
-2.678583098932791036e+05
-2.674102083915800322e+05
-1.986293311323646922e+05
-2.359329518298008479e+05
-2.688689563302756287e+05
-3.266480006885926705e+05
-2.603828162893140689e+05
-3.668648725652873982e+05
-8.347391284737942042e+05
-2.491774039772442775e+05
-2.897939320621292572e+05
-3.765700195287001552e+05
-2.855967561958675506e+05
-3.430164353871796047e+05
-2.796713020634555724e+05
-3.607477572142519057e+05
-3.087194368404226843e+05
-3.813561931311297230e+05
-2.556240105721334694e+05
-2.764495906854034401e+05
-2.814611061544411350e+05
-3.380007436236831127e+05
-3.256556537154164398e+05
-3.643569503568123328e+05
-3.017382061859621899e+05
-3.454601037004881073e+05
-2.479063641399410553e+05
-3.804100485624616267e+05
-1.016309428336744546e+06
-3.835870193657634081e+05
-2.993580085126472404e+05
-3.262633477340911049e+05
-2.853226478883322561e+05
-3.838294056430790806e+05
-3.073456232686466537e+05
-4.644907069664929295e+05
-3.210153513015552890e+05
-4.093686408789579291e+05
-2.992147609352488071e+05
-3.045686192962548230e+05
-3.116024599563883385e+05
-3.918703969324143836e+05
-3.428228673276295885e+05
-3.920399557887498522e+05
-3.253848938449721318e+05
-3.859706012284886092e+05
-2.756387803143109195e+05
-4.268004450220388826e+05
-1.136149757060964126e+06
-4.195094270892021013e+05
-3.276717006399817765e+05
-2.938048679601772455e+05
-3.268603350734477863e+05
-4.316942499299270567e+05
-3.302390725123226875e+05
-5.616370557167911902e+05
-3.244001614437317476e+05
-4.200421076023818459e+05
-3.503138283814422321e+05
-2.935374160151062533e+05
-2.081448399247524794e+05
-3.808440831010111142e+05
-3.437205454335578252e+05
-4.211739441423289245e+05
-3.560600777750653215e+05
-5.940543138118342031e+05
-6.516268313780400204e+05
-2.946417447060499107e+05
4.666712384768862277e+06
-3.925384565386667382e+05
-3.283172576230574632e+05
-2.074799637646019692e+05
-3.430594691680816468e+05
-4.244633245804609032e+05
-3.332547002534789499e+05
-6.183174586905590259e+05
-2.916234409449208761e+05
-4.124387224551647669e+05
-1.057300445552304620e+06
-7.410460784361155238e+05
-5.331981290344404988e+05
-5.047402673441100633e+05
-3.507765686674339231e+05
-4.230570500456808368e+05
-3.523754798891127575e+05
-4.115318656730111688e+05
-2.836794140110923909e+05
-4.141840594690784346e+05
-1.094100319284467027e+06
-3.838985188389735995e+05
-2.997195395523735788e+05
-1.393533605442721164e+05
-3.284964359802603722e+05
-4.064088951725682709e+05
-2.952426604150146013e+05
-6.361948453014835250e+05
-2.565863863337237854e+05
-3.364117266130072530e+05
-3.956502553452011198e+05
-3.786972917745644227e+05
-2.022941090338488575e+05
-4.275486020807032473e+05
-3.958792054346147925e+05
-4.353451587759751128e+05
-3.689244158616417553e+05
-4.132714696614767890e+05
-3.085435110889892094e+05
-3.891748790776703972e+05
-9.926799972333738115e+05
-3.705034672656836919e+05
-3.109132346671707928e+05
-1.357453525817289483e+05
-3.540668296305639669e+05
-3.960290385969390627e+05
-3.015154896959732287e+05
-6.679170932273198850e+05
-2.622846132852466544e+05
-3.180723056343952194e+05
-4.621279211323603522e+05
-4.469148880925015546e+05
-2.576075008068212774e+05
-3.152673495715747122e+05
-1.757939897474984173e+05
-3.061482920710406033e+05
-3.329901733243165072e+05
-3.902583881090825889e+05
-3.603947848637944553e+05
-3.885028954508642200e+05
-1.330030060690392274e+05
-3.864235534269991331e+04
-1.685226482050716877e+05
-1.283970666981036775e+05
-3.705844097987654386e+05
-3.888006104292543605e+05
-3.764596151734631276e+05
1.598943435242618434e+06
-2.181599793265513144e+05
-3.174468690865417011e+05
1.209578976139466278e+06
-5.475932043917882256e+05
-2.787232005460629007e+05
-3.354123502455269918e+05
-1.762860383231214946e+05
-3.068669569759443402e+05
-4.136228854812644422e+05
-3.990484651847907808e+05
-4.346803779740438331e+05
-3.968265599036895437e+05
-1.602998203275205800e+06
-8.808753912754282355e+05
-7.195073426537967753e+05
-6.190926814963270444e+05
-5.908109803137921263e+05
-4.711376784649137408e+05
-4.359683938124938868e+05
-7.091638696178873070e+05
-3.657649582566852914e+05
-3.284278053496603388e+05
-5.814254731276750099e+05
-5.995349020054709399e+05
-3.000608793252847390e+05
-3.112575507025489351e+05
-1.437321702829356072e+05
-2.598010173368360847e+05
2.164444234844554449e+05
3.273632076799591305e+05
-1.371740944917090237e+05
-1.322359354719666298e+05
-5.237254662961331196e+05
-3.227727421374632977e+05
-3.886098445303793997e+05
-6.170472920330173802e+05
-4.527717139818896540e+05
-3.028814710366346408e+05
-3.583340297157915775e+05
-5.740420924577432452e+05
-9.642913184041571803e+05
-5.995641134061252233e+05
-7.429052361176623963e+05
-6.860457157915281132e+05
-3.287313004566794261e+05
-2.606538454182601999e+05
-8.391980040956300218e+04
-1.718016248897674959e+05
-2.645824447663653409e+05
-2.345838693981580436e+05
-3.702524007731325692e+05
-2.006261528552079108e+05
-4.466349944068926852e+05
-2.712490476794533897e+05
-3.774133732858763542e+05
-8.555275270648838487e+05
4.296063625241474947e+05
2.632087228254710790e+05
-1.248782871415272821e+05
-2.984813344983574934e+05
-2.371735178905555513e+05
-8.685406995869195089e+04
-3.966429650989591610e+05
1.839724613709720783e+06
-2.272611481628975598e+05
-1.247157586487099761e+05
-1.706684419840098824e+06
-1.057118821665794821e+05
-9.609196745391534641e+05
