-2.036950000000000000e+05
-2.009160000000000000e+05
-2.050590000000000000e+05
-2.091600000000000000e+05
-2.084560000000000000e+05
-2.037160000000000000e+05
-2.010190000000000000e+05
-2.049070000000000000e+05
-2.091450000000000000e+05
-2.084520000000000000e+05
-2.037010000000000000e+05
-2.010580000000000000e+05
-2.049220000000000000e+05
-2.093360000000000000e+05
-2.088170000000000000e+05
-2.043060000000000000e+05
-2.015070000000000000e+05
-2.052610000000000000e+05
-2.092990000000000000e+05
-2.084510000000000000e+05
-2.032510000000000000e+05
-2.002940000000000000e+05
-2.042190000000000000e+05
-2.085570000000000000e+05
-2.082640000000000000e+05
-2.038500000000000000e+05
-2.009520000000000000e+05
-2.044950000000000000e+05
-2.087940000000000000e+05
-2.084510000000000000e+05
-2.036620000000000000e+05
-2.007590000000000000e+05
-2.044920000000000000e+05
-2.089270000000000000e+05
-2.087350000000000000e+05
-2.038680000000000000e+05
-2.005430000000000000e+05
-2.040960000000000000e+05
-2.086210000000000000e+05
-2.084790000000000000e+05
-2.037770000000000000e+05
-2.004690000000000000e+05
-2.041080000000000000e+05
-2.084290000000000000e+05
-2.081610000000000000e+05
-2.034760000000000000e+05
-2.001420000000000000e+05
-2.038780000000000000e+05
-2.087150000000000000e+05
-2.084390000000000000e+05
-2.035960000000000000e+05
-2.000630000000000000e+05
-2.037090000000000000e+05
-2.084040000000000000e+05
-2.083960000000000000e+05
-2.037620000000000000e+05
-2.002110000000000000e+05
-2.034720000000000000e+05
-2.081330000000000000e+05
-2.082870000000000000e+05
-2.038120000000000000e+05
-2.000910000000000000e+05
-2.032570000000000000e+05
-2.079250000000000000e+05
-2.081030000000000000e+05
-2.036090000000000000e+05
-2.000210000000000000e+05
-2.032450000000000000e+05
-2.077620000000000000e+05
-2.080810000000000000e+05
-2.037360000000000000e+05
-1.998360000000000000e+05
-2.030050000000000000e+05
-2.078270000000000000e+05
-2.082610000000000000e+05
-2.035230000000000000e+05
-1.996070000000000000e+05
-2.028970000000000000e+05
-2.076520000000000000e+05
-2.080070000000000000e+05
-2.037740000000000000e+05
-2.000460000000000000e+05
-2.029490000000000000e+05
-2.075290000000000000e+05
-2.080940000000000000e+05
-2.037440000000000000e+05
-1.995480000000000000e+05
-2.027510000000000000e+05
-2.073420000000000000e+05
-2.079810000000000000e+05
-2.038920000000000000e+05
-1.996630000000000000e+05
-2.024270000000000000e+05
-2.073260000000000000e+05
-2.079710000000000000e+05
-2.037210000000000000e+05
-1.995330000000000000e+05
-2.022270000000000000e+05
-2.071610000000000000e+05
-2.079630000000000000e+05
-2.039120000000000000e+05
-1.996760000000000000e+05
-2.021590000000000000e+05
-2.070980000000000000e+05
-2.079110000000000000e+05
-2.039290000000000000e+05
-1.997010000000000000e+05
-2.019460000000000000e+05
-2.069890000000000000e+05
-2.080080000000000000e+05
-2.039590000000000000e+05
-1.996100000000000000e+05
-2.020870000000000000e+05
-2.069360000000000000e+05
-2.078370000000000000e+05
-2.037750000000000000e+05
-1.994420000000000000e+05
-2.020060000000000000e+05
-2.068640000000000000e+05
-2.078770000000000000e+05
-2.038960000000000000e+05
-1.994030000000000000e+05
-2.017540000000000000e+05
-2.067460000000000000e+05
-2.080120000000000000e+05
-2.039980000000000000e+05
-1.993490000000000000e+05
-2.016170000000000000e+05
-2.067940000000000000e+05
-2.079520000000000000e+05
-2.041320000000000000e+05
-1.993220000000000000e+05
-2.014210000000000000e+05
-2.064310000000000000e+05
-2.077370000000000000e+05
-2.038900000000000000e+05
-1.992370000000000000e+05
-2.013760000000000000e+05
-2.064710000000000000e+05
-2.077720000000000000e+05
-2.039700000000000000e+05
-1.992260000000000000e+05
-2.012300000000000000e+05
-2.062720000000000000e+05
-2.075690000000000000e+05
-2.039320000000000000e+05
-1.993950000000000000e+05
-2.012540000000000000e+05
-2.062270000000000000e+05
-2.076710000000000000e+05
-2.038910000000000000e+05
-1.992270000000000000e+05
-2.010820000000000000e+05
-2.062660000000000000e+05
-2.078960000000000000e+05
-2.039150000000000000e+05
-1.990270000000000000e+05
-2.006500000000000000e+05
-2.058670000000000000e+05
-2.076530000000000000e+05
-2.041120000000000000e+05
-1.991060000000000000e+05
-2.006100000000000000e+05
-2.057660000000000000e+05
-2.076490000000000000e+05
-2.040720000000000000e+05
-1.990860000000000000e+05
-2.005310000000000000e+05
-2.058540000000000000e+05
-2.075860000000000000e+05
-2.039590000000000000e+05
-1.990610000000000000e+05
-2.007290000000000000e+05
-2.059030000000000000e+05
-2.076620000000000000e+05
-2.044840000000000000e+05
-1.995760000000000000e+05
-2.007240000000000000e+05
-2.055450000000000000e+05
-2.072050000000000000e+05
-2.036190000000000000e+05
-1.981530000000000000e+05
-1.994340000000000000e+05
-2.048900000000000000e+05
-2.071060000000000000e+05
-2.040790000000000000e+05
-1.988570000000000000e+05
-2.000030000000000000e+05
-2.054560000000000000e+05
-2.073190000000000000e+05
-2.040240000000000000e+05
-1.990460000000000000e+05
-1.997570000000000000e+05
-2.048660000000000000e+05
-2.071590000000000000e+05
-2.038160000000000000e+05
-1.987770000000000000e+05
-1.996500000000000000e+05
-2.047880000000000000e+05
-2.071530000000000000e+05
-2.039790000000000000e+05
-1.984110000000000000e+05
-1.992370000000000000e+05
-2.047820000000000000e+05
-2.069070000000000000e+05
-2.037920000000000000e+05
-1.985340000000000000e+05
-1.991310000000000000e+05
-2.043870000000000000e+05
-2.068640000000000000e+05
-2.041340000000000000e+05
-1.988260000000000000e+05
-1.992440000000000000e+05
-2.041510000000000000e+05
-2.064960000000000000e+05
-2.036250000000000000e+05
-1.986050000000000000e+05
-1.991390000000000000e+05
-2.042020000000000000e+05
-2.066980000000000000e+05
-2.037590000000000000e+05
-1.983930000000000000e+05
-1.988550000000000000e+05
-2.038460000000000000e+05
-2.065090000000000000e+05
-2.037680000000000000e+05
-1.983660000000000000e+05
-1.986450000000000000e+05
-2.038180000000000000e+05
-2.062860000000000000e+05
-2.036160000000000000e+05
-1.982770000000000000e+05
-1.981810000000000000e+05
-2.034710000000000000e+05
-2.064460000000000000e+05
-2.038680000000000000e+05
-1.983140000000000000e+05
-1.982510000000000000e+05
-2.033840000000000000e+05
-2.063370000000000000e+05
-2.038600000000000000e+05
-1.984900000000000000e+05
-1.982200000000000000e+05
-2.032400000000000000e+05
-2.061540000000000000e+05
-2.036340000000000000e+05
-1.981740000000000000e+05
-1.979700000000000000e+05
-2.031990000000000000e+05
-2.059290000000000000e+05
-2.034240000000000000e+05
-1.981350000000000000e+05
-1.978740000000000000e+05
-2.030350000000000000e+05
-2.061600000000000000e+05
-2.035860000000000000e+05
-2.835280000000000000e+05
-2.841590000000000000e+05
-2.782010000000000000e+05
-2.728580000000000000e+05
-2.770650000000000000e+05
-2.836640000000000000e+05
-2.842350000000000000e+05
-2.783290000000000000e+05
-2.728800000000000000e+05
-2.768770000000000000e+05
-2.834540000000000000e+05
-2.841830000000000000e+05
-2.783670000000000000e+05
-2.729640000000000000e+05
-2.766440000000000000e+05
-2.832170000000000000e+05
-2.842840000000000000e+05
-2.785310000000000000e+05
-2.728820000000000000e+05
-2.765790000000000000e+05
-2.833170000000000000e+05
-2.844120000000000000e+05
-2.786390000000000000e+05
-2.727540000000000000e+05
-2.763060000000000000e+05
-2.831490000000000000e+05
-2.844440000000000000e+05
-2.788460000000000000e+05
-2.729800000000000000e+05
-2.762840000000000000e+05
-2.831320000000000000e+05
-2.844220000000000000e+05
-2.788820000000000000e+05
-2.729500000000000000e+05
-2.761530000000000000e+05
-2.828630000000000000e+05
-2.843140000000000000e+05
-2.789380000000000000e+05
-2.730100000000000000e+05
-2.761220000000000000e+05
-2.828860000000000000e+05
-2.844040000000000000e+05
-2.790780000000000000e+05
-2.729770000000000000e+05
-2.759450000000000000e+05
-2.827390000000000000e+05
-2.842910000000000000e+05
-2.791890000000000000e+05
-2.730030000000000000e+05
-2.758620000000000000e+05
-2.825790000000000000e+05
-2.842520000000000000e+05
-2.793270000000000000e+05
-2.730440000000000000e+05
-2.756500000000000000e+05
-2.824120000000000000e+05
-2.842440000000000000e+05
-2.793420000000000000e+05
-2.729820000000000000e+05
-2.754790000000000000e+05
-2.822660000000000000e+05
-2.841260000000000000e+05
-2.792940000000000000e+05
-2.729540000000000000e+05
-2.752860000000000000e+05
-2.820640000000000000e+05
-2.840870000000000000e+05
-2.793730000000000000e+05
-2.729800000000000000e+05
-2.752070000000000000e+05
-2.820210000000000000e+05
-2.840000000000000000e+05
-2.793790000000000000e+05
-2.730550000000000000e+05
-2.750390000000000000e+05
-2.818120000000000000e+05
-2.840220000000000000e+05
-2.795420000000000000e+05
-2.731220000000000000e+05
-2.748570000000000000e+05
-2.817120000000000000e+05
-2.840620000000000000e+05
-2.796790000000000000e+05
-2.731720000000000000e+05
-2.748370000000000000e+05
-2.816330000000000000e+05
-2.838190000000000000e+05
-2.796020000000000000e+05
-2.732400000000000000e+05
-2.747990000000000000e+05
-2.814880000000000000e+05
-2.838940000000000000e+05
-2.797340000000000000e+05
-2.732750000000000000e+05
-2.746740000000000000e+05
-2.814670000000000000e+05
-2.840500000000000000e+05
-2.797340000000000000e+05
-2.734610000000000000e+05
-2.745620000000000000e+05
-2.811790000000000000e+05
-2.840950000000000000e+05
-2.799890000000000000e+05
-2.735860000000000000e+05
-2.746890000000000000e+05
-2.814260000000000000e+05
-2.843820000000000000e+05
-2.805580000000000000e+05
-2.742710000000000000e+05
-2.752680000000000000e+05
-2.818620000000000000e+05
-2.844400000000000000e+05
-2.800340000000000000e+05
-2.730550000000000000e+05
-2.735220000000000000e+05
-2.802940000000000000e+05
-2.837090000000000000e+05
-2.802540000000000000e+05
-2.738320000000000000e+05
-2.745330000000000000e+05
-2.809640000000000000e+05
-2.840310000000000000e+05
-2.805640000000000000e+05
-2.741890000000000000e+05
-2.746870000000000000e+05
-2.810850000000000000e+05
-2.840070000000000000e+05
-2.805160000000000000e+05
-2.740570000000000000e+05
-2.743310000000000000e+05
-2.808040000000000000e+05
-2.841670000000000000e+05
-2.807750000000000000e+05
-2.742460000000000000e+05
-2.743540000000000000e+05
-2.808230000000000000e+05
-2.840670000000000000e+05
-2.807060000000000000e+05
-2.741520000000000000e+05
-2.741820000000000000e+05
-2.804860000000000000e+05
-2.839210000000000000e+05
-2.807810000000000000e+05
-2.742950000000000000e+05
-2.742310000000000000e+05
-2.806070000000000000e+05
-2.840610000000000000e+05
-2.809090000000000000e+05
-2.743650000000000000e+05
-2.740020000000000000e+05
-2.803930000000000000e+05
-2.841650000000000000e+05
-2.811390000000000000e+05
-2.744420000000000000e+05
-2.739340000000000000e+05
-2.803960000000000000e+05
-2.841770000000000000e+05
-2.811510000000000000e+05
-2.744110000000000000e+05
-2.737400000000000000e+05
-2.802630000000000000e+05
-2.841910000000000000e+05
-2.812840000000000000e+05
-2.746120000000000000e+05
-2.737830000000000000e+05
-2.803060000000000000e+05
-2.843010000000000000e+05
-2.815110000000000000e+05
-2.746960000000000000e+05
-2.736580000000000000e+05
-2.800820000000000000e+05
-2.842330000000000000e+05
-2.815820000000000000e+05
-2.746840000000000000e+05
-2.734570000000000000e+05
-2.799460000000000000e+05
-2.842270000000000000e+05
-2.816420000000000000e+05
-2.747710000000000000e+05
-2.735570000000000000e+05
-2.799260000000000000e+05
-2.841160000000000000e+05
-2.817010000000000000e+05
-2.748710000000000000e+05
-2.733380000000000000e+05
-2.797200000000000000e+05
-2.840260000000000000e+05
-2.817330000000000000e+05
-2.749310000000000000e+05
-2.731700000000000000e+05
-2.796160000000000000e+05
-2.841610000000000000e+05
-2.818620000000000000e+05
-2.750440000000000000e+05
-2.731970000000000000e+05
-2.794900000000000000e+05
-2.840200000000000000e+05
-2.817990000000000000e+05
-2.749710000000000000e+05
-2.730710000000000000e+05
-2.792890000000000000e+05
-2.839490000000000000e+05
-2.818910000000000000e+05
-2.751900000000000000e+05
-2.730760000000000000e+05
-2.791300000000000000e+05
-2.838980000000000000e+05
-2.818780000000000000e+05
-2.749910000000000000e+05
-2.730260000000000000e+05
-2.792460000000000000e+05
-2.840110000000000000e+05
-2.821110000000000000e+05
-2.753510000000000000e+05
-2.729160000000000000e+05
-2.790900000000000000e+05
-2.838820000000000000e+05
-2.820450000000000000e+05
-2.753740000000000000e+05
-2.728200000000000000e+05
-2.787110000000000000e+05
-2.836140000000000000e+05
-2.819090000000000000e+05
-2.754870000000000000e+05
-2.729780000000000000e+05
-2.788080000000000000e+05
-2.837270000000000000e+05
-2.821380000000000000e+05
-2.756660000000000000e+05
-2.727760000000000000e+05
-2.784010000000000000e+05
-2.834960000000000000e+05
-2.822190000000000000e+05
-2.759050000000000000e+05
-2.730310000000000000e+05
-2.784650000000000000e+05
-2.833910000000000000e+05
-2.821870000000000000e+05
-2.758710000000000000e+05
-2.727490000000000000e+05
-2.782760000000000000e+05
-2.835740000000000000e+05
-2.824610000000000000e+05
-2.761850000000000000e+05
-2.730530000000000000e+05
-2.783510000000000000e+05
-2.834070000000000000e+05
-2.823050000000000000e+05
-2.762560000000000000e+05
-2.729960000000000000e+05
-2.780520000000000000e+05
-2.832670000000000000e+05
-2.823390000000000000e+05
-2.762000000000000000e+05
-2.728490000000000000e+05
-2.779060000000000000e+05
-2.832200000000000000e+05
-2.825660000000000000e+05
-2.766890000000000000e+05
-2.729660000000000000e+05
-2.778490000000000000e+05
-2.831710000000000000e+05
-2.825020000000000000e+05
-2.766260000000000000e+05
-2.728790000000000000e+05
-2.778650000000000000e+05
-2.831850000000000000e+05
-2.824610000000000000e+05
-2.767240000000000000e+05
-2.730540000000000000e+05
-2.780570000000000000e+05
-2.835770000000000000e+05
-2.831540000000000000e+05
-2.772920000000000000e+05
-2.735020000000000000e+05
-2.782770000000000000e+05
-2.836340000000000000e+05
-2.829630000000000000e+05
-2.765620000000000000e+05
-2.719990000000000000e+05
-2.766050000000000000e+05
-2.824640000000000000e+05
-2.822210000000000000e+05
-2.765810000000000000e+05
-2.727090000000000000e+05
-2.774170000000000000e+05
-2.831050000000000000e+05
-2.829220000000000000e+05
-2.771820000000000000e+05
-2.728080000000000000e+05
-2.772890000000000000e+05
-2.829600000000000000e+05
-2.828750000000000000e+05
-2.770690000000000000e+05
-2.728270000000000000e+05
-2.772800000000000000e+05
-2.830560000000000000e+05
-2.829020000000000000e+05
-2.771420000000000000e+05
-2.729030000000000000e+05
-2.770410000000000000e+05
-2.828000000000000000e+05
-2.830390000000000000e+05
-2.775440000000000000e+05
-2.728430000000000000e+05
-2.769100000000000000e+05
-2.828490000000000000e+05
-2.830900000000000000e+05
-2.774910000000000000e+05
-2.727290000000000000e+05
-2.767720000000000000e+05
-2.825930000000000000e+05
-2.829390000000000000e+05
-2.773770000000000000e+05
-2.726670000000000000e+05
-2.765740000000000000e+05
-2.825090000000000000e+05
-2.830090000000000000e+05
-2.775840000000000000e+05
-2.726720000000000000e+05
-2.763470000000000000e+05
-2.823550000000000000e+05
-2.831440000000000000e+05
-2.778110000000000000e+05
-2.726670000000000000e+05
-2.763540000000000000e+05
-2.823340000000000000e+05
-2.830560000000000000e+05
-2.778040000000000000e+05
-2.727620000000000000e+05
-2.761910000000000000e+05
-2.823220000000000000e+05
-2.832290000000000000e+05
-2.779160000000000000e+05
-2.726980000000000000e+05
-2.760470000000000000e+05
-2.821220000000000000e+05
-2.830070000000000000e+05
-2.779690000000000000e+05
-2.727740000000000000e+05
-2.760560000000000000e+05
-2.821220000000000000e+05
-2.831590000000000000e+05
-2.780560000000000000e+05
-2.726310000000000000e+05
-2.757500000000000000e+05
-2.819200000000000000e+05
-2.832070000000000000e+05
-2.781940000000000000e+05
-2.724840000000000000e+05
-2.755260000000000000e+05
-2.818940000000000000e+05
-2.831920000000000000e+05
-2.781070000000000000e+05
-2.722360000000000000e+05
-2.753890000000000000e+05
-2.818970000000000000e+05
-2.832170000000000000e+05
-2.782930000000000000e+05
-2.724740000000000000e+05
-2.752130000000000000e+05
-2.816110000000000000e+05
-2.832060000000000000e+05
-2.784550000000000000e+05
-2.725520000000000000e+05
-2.751080000000000000e+05
-2.814570000000000000e+05
-2.831560000000000000e+05
-2.784890000000000000e+05
-2.726190000000000000e+05
-2.751120000000000000e+05
-2.814380000000000000e+05
-2.831010000000000000e+05
-2.784510000000000000e+05
-2.724860000000000000e+05
-2.748240000000000000e+05
-2.812970000000000000e+05
-2.831470000000000000e+05
-2.787040000000000000e+05
-2.726460000000000000e+05
-2.747510000000000000e+05
-2.811260000000000000e+05
-2.829510000000000000e+05
-2.785390000000000000e+05
-2.727410000000000000e+05
-2.746980000000000000e+05
-2.811260000000000000e+05
-2.832420000000000000e+05
-2.787790000000000000e+05
-2.726370000000000000e+05
-2.744650000000000000e+05
-2.808220000000000000e+05
-2.828030000000000000e+05
-2.787430000000000000e+05
-2.728350000000000000e+05
-2.743780000000000000e+05
-2.807330000000000000e+05
-2.830560000000000000e+05
-2.788720000000000000e+05
-2.726540000000000000e+05
-2.742790000000000000e+05
-2.805010000000000000e+05
-2.829010000000000000e+05
-2.789250000000000000e+05
-2.727070000000000000e+05
-2.740370000000000000e+05
-2.805090000000000000e+05
-2.830560000000000000e+05
-2.788820000000000000e+05
-2.726770000000000000e+05
-2.739920000000000000e+05
-2.804440000000000000e+05
-2.829840000000000000e+05
-2.790400000000000000e+05
-2.728230000000000000e+05
-2.737820000000000000e+05
-2.801860000000000000e+05
-2.828120000000000000e+05
-2.790150000000000000e+05
-2.727520000000000000e+05
-2.736320000000000000e+05
-2.799640000000000000e+05
-2.826990000000000000e+05
-2.789310000000000000e+05
-2.726940000000000000e+05
-2.735290000000000000e+05
-2.798790000000000000e+05
-2.827150000000000000e+05
-2.790860000000000000e+05
-2.727790000000000000e+05
-2.733060000000000000e+05
-2.797340000000000000e+05
-2.827670000000000000e+05
-2.791290000000000000e+05
-2.727250000000000000e+05
-2.733360000000000000e+05
-2.799640000000000000e+05
-2.831680000000000000e+05
-2.797210000000000000e+05
-2.731950000000000000e+05
-2.736840000000000000e+05
-2.799890000000000000e+05
-2.827820000000000000e+05
-2.788890000000000000e+05
-2.720150000000000000e+05
-2.719890000000000000e+05
-2.787190000000000000e+05
-2.822170000000000000e+05
-2.790170000000000000e+05
-2.727610000000000000e+05
-2.728190000000000000e+05
-2.792100000000000000e+05
-2.826790000000000000e+05
-2.795020000000000000e+05
-2.728840000000000000e+05
-2.727220000000000000e+05
-2.791130000000000000e+05
-2.826420000000000000e+05
-2.795300000000000000e+05
-2.729190000000000000e+05
-2.725690000000000000e+05
-2.789570000000000000e+05
-2.824880000000000000e+05
-2.795280000000000000e+05
-2.729570000000000000e+05
-2.724770000000000000e+05
-2.787440000000000000e+05
-2.824510000000000000e+05
-2.795870000000000000e+05
-2.730260000000000000e+05
-2.723590000000000000e+05
-2.786020000000000000e+05
-2.824220000000000000e+05
-2.797080000000000000e+05
-2.731350000000000000e+05
-2.723460000000000000e+05
-2.785510000000000000e+05
-2.823070000000000000e+05
-2.796100000000000000e+05
-2.731610000000000000e+05
-2.720460000000000000e+05
-2.782010000000000000e+05
-2.823700000000000000e+05
-2.797460000000000000e+05
-2.732450000000000000e+05
-2.721360000000000000e+05
-2.781760000000000000e+05
-2.823140000000000000e+05
-2.796990000000000000e+05
-2.731910000000000000e+05
-2.718110000000000000e+05
-2.779470000000000000e+05
-2.821890000000000000e+05
-2.797710000000000000e+05
-2.731760000000000000e+05
-2.718190000000000000e+05
-2.779690000000000000e+05
-2.821450000000000000e+05
-2.798610000000000000e+05
-2.732970000000000000e+05
-2.716400000000000000e+05
-2.777130000000000000e+05
-2.821530000000000000e+05
-2.799040000000000000e+05
-2.733490000000000000e+05
-2.716160000000000000e+05
-2.776530000000000000e+05
-2.821110000000000000e+05
-2.800260000000000000e+05
-2.735730000000000000e+05
-2.715780000000000000e+05
-2.774440000000000000e+05
-2.818670000000000000e+05
-2.799610000000000000e+05
-2.736210000000000000e+05
-2.716030000000000000e+05
-2.774020000000000000e+05
-2.819560000000000000e+05
-2.801610000000000000e+05
-2.736500000000000000e+05
-2.713630000000000000e+05
-2.772580000000000000e+05
-2.819530000000000000e+05
-2.801700000000000000e+05
-2.736560000000000000e+05
-2.712160000000000000e+05
-2.770450000000000000e+05
-2.817670000000000000e+05
-2.801960000000000000e+05
-2.737490000000000000e+05
-2.712120000000000000e+05
-2.768940000000000000e+05
-2.816630000000000000e+05
-2.802190000000000000e+05
-2.738330000000000000e+05
-2.711110000000000000e+05
-2.767350000000000000e+05
-2.816170000000000000e+05
-2.802320000000000000e+05
-2.739740000000000000e+05
-2.711400000000000000e+05
-2.766360000000000000e+05
-2.815020000000000000e+05
-2.801420000000000000e+05
-2.738770000000000000e+05
-2.709240000000000000e+05
-2.763730000000000000e+05
-2.814630000000000000e+05
-2.803290000000000000e+05
-2.739740000000000000e+05
-2.708680000000000000e+05
-2.761950000000000000e+05
-2.813360000000000000e+05
-2.801740000000000000e+05
-2.738590000000000000e+05
-2.708170000000000000e+05
-2.760840000000000000e+05
-2.811940000000000000e+05
-2.801770000000000000e+05
-2.739850000000000000e+05
-2.704820000000000000e+05
-2.757190000000000000e+05
-2.810030000000000000e+05
-2.800740000000000000e+05
-2.740630000000000000e+05
-2.704220000000000000e+05
-2.755470000000000000e+05
-2.808190000000000000e+05
-2.799540000000000000e+05
-2.741110000000000000e+05
-2.703840000000000000e+05
-2.753650000000000000e+05
-2.807850000000000000e+05
-2.801640000000000000e+05
-2.741280000000000000e+05
-2.703590000000000000e+05
-2.752900000000000000e+05
-2.806050000000000000e+05
-2.801110000000000000e+05
-2.741060000000000000e+05
-2.701890000000000000e+05
-2.750460000000000000e+05
-2.804990000000000000e+05
-2.800000000000000000e+05
-2.741260000000000000e+05
-2.700630000000000000e+05
-2.747810000000000000e+05
-2.803450000000000000e+05
-2.801430000000000000e+05
-2.742870000000000000e+05
-2.701660000000000000e+05
-2.747130000000000000e+05
-2.804260000000000000e+05
-2.802670000000000000e+05
-2.744160000000000000e+05
-2.700650000000000000e+05
-2.745890000000000000e+05
-2.801010000000000000e+05
-2.801260000000000000e+05
-2.745090000000000000e+05
-2.701240000000000000e+05
-2.745810000000000000e+05
-2.804760000000000000e+05
-2.806790000000000000e+05
-2.751420000000000000e+05
-2.706970000000000000e+05
-2.750030000000000000e+05
-2.805430000000000000e+05
-2.801800000000000000e+05
-2.741130000000000000e+05
-2.692180000000000000e+05
-2.735020000000000000e+05
-2.795500000000000000e+05
-2.798510000000000000e+05
-2.744890000000000000e+05
-2.700160000000000000e+05
-2.741290000000000000e+05
-2.800190000000000000e+05
-2.803840000000000000e+05
-2.748820000000000000e+05
-2.700960000000000000e+05
-2.739360000000000000e+05
-2.798970000000000000e+05
-2.803970000000000000e+05
-2.749550000000000000e+05
-2.700420000000000000e+05
-2.738520000000000000e+05
-2.797190000000000000e+05
-2.804470000000000000e+05
-2.751470000000000000e+05
-2.699870000000000000e+05
-2.737300000000000000e+05
-2.796950000000000000e+05
-2.804090000000000000e+05
-2.751470000000000000e+05
-2.699210000000000000e+05
-2.734720000000000000e+05
-2.795310000000000000e+05
-2.803430000000000000e+05
-2.749510000000000000e+05
-2.696940000000000000e+05
-2.733310000000000000e+05
-2.795480000000000000e+05
-2.805870000000000000e+05
-2.753570000000000000e+05
-2.697970000000000000e+05
-2.730090000000000000e+05
-2.791920000000000000e+05
-2.802390000000000000e+05
-2.751510000000000000e+05
-2.697260000000000000e+05
-2.728190000000000000e+05
-2.791240000000000000e+05
-2.803660000000000000e+05
-2.752600000000000000e+05
-2.696260000000000000e+05
-2.726600000000000000e+05
-2.790810000000000000e+05
-2.803600000000000000e+05
-2.752360000000000000e+05
-2.697540000000000000e+05
-2.727330000000000000e+05
-2.789420000000000000e+05
-2.803510000000000000e+05
-2.754370000000000000e+05
-2.697040000000000000e+05
-2.724870000000000000e+05
-2.788650000000000000e+05
-2.803220000000000000e+05
-2.754790000000000000e+05
-2.698610000000000000e+05
-2.724950000000000000e+05
-2.786790000000000000e+05
-2.803700000000000000e+05
-2.756660000000000000e+05
-2.698830000000000000e+05
-2.723480000000000000e+05
-2.787590000000000000e+05
-2.804780000000000000e+05
-2.757850000000000000e+05
-2.699120000000000000e+05
-2.722050000000000000e+05
-2.785440000000000000e+05
-2.803240000000000000e+05
-2.758180000000000000e+05
-2.701030000000000000e+05
-2.722410000000000000e+05
-2.785970000000000000e+05
-2.806010000000000000e+05
-2.760590000000000000e+05
-2.699340000000000000e+05
-2.720170000000000000e+05
-2.784590000000000000e+05
-2.805430000000000000e+05
-2.761570000000000000e+05
-2.701550000000000000e+05
-2.720540000000000000e+05
-2.784070000000000000e+05
-2.806090000000000000e+05
-2.763720000000000000e+05
-2.703470000000000000e+05
-2.720090000000000000e+05
-2.784140000000000000e+05
-2.805970000000000000e+05
-2.764900000000000000e+05
-2.703880000000000000e+05
-2.718730000000000000e+05
-2.782780000000000000e+05
-2.807470000000000000e+05
-2.766990000000000000e+05
-2.703450000000000000e+05
-2.717940000000000000e+05
-2.782910000000000000e+05
-2.806160000000000000e+05
-2.766320000000000000e+05
-2.705540000000000000e+05
-2.717390000000000000e+05
-2.780150000000000000e+05
-2.806140000000000000e+05
-2.768510000000000000e+05
-2.706640000000000000e+05
-2.717520000000000000e+05
-2.780910000000000000e+05
-2.806820000000000000e+05
-2.769440000000000000e+05
-2.706090000000000000e+05
-2.716430000000000000e+05
-2.780200000000000000e+05
-2.807770000000000000e+05
-2.771050000000000000e+05
-2.707490000000000000e+05
-2.715970000000000000e+05
-2.779690000000000000e+05
-2.807860000000000000e+05
-2.772410000000000000e+05
-2.707810000000000000e+05
-2.713220000000000000e+05
-2.777970000000000000e+05
-2.807540000000000000e+05
-2.772220000000000000e+05
-2.707610000000000000e+05
-2.712520000000000000e+05
-2.777460000000000000e+05
-2.809810000000000000e+05
-2.775850000000000000e+05
-2.711060000000000000e+05
-2.713790000000000000e+05
-2.777850000000000000e+05
-2.809040000000000000e+05
-2.774770000000000000e+05
-2.709540000000000000e+05
-2.710510000000000000e+05
-2.775670000000000000e+05
-2.808910000000000000e+05
-2.776530000000000000e+05
-2.712070000000000000e+05
-2.711810000000000000e+05
-2.775990000000000000e+05
-2.809270000000000000e+05
-2.778200000000000000e+05
-2.712510000000000000e+05
-2.711230000000000000e+05
-2.775110000000000000e+05
-2.810140000000000000e+05
-2.779140000000000000e+05
-2.713330000000000000e+05
-2.709490000000000000e+05
-2.773550000000000000e+05
-2.811200000000000000e+05
-2.782890000000000000e+05
-2.719240000000000000e+05
-2.715470000000000000e+05
-2.779690000000000000e+05
-2.814300000000000000e+05
-2.781840000000000000e+05
-2.710680000000000000e+05
-2.700140000000000000e+05
-2.762840000000000000e+05
-2.801720000000000000e+05
-2.777710000000000000e+05
-2.714090000000000000e+05
-2.705610000000000000e+05
-2.768930000000000000e+05
-2.808860000000000000e+05
-2.782290000000000000e+05
-2.715540000000000000e+05
-2.706740000000000000e+05
-2.770560000000000000e+05
-2.809720000000000000e+05
-2.783150000000000000e+05
-2.716750000000000000e+05
-2.705090000000000000e+05
-2.767790000000000000e+05
-2.807790000000000000e+05
-2.782270000000000000e+05
-2.718310000000000000e+05
-2.705710000000000000e+05
-2.765490000000000000e+05
-2.807020000000000000e+05
-2.783210000000000000e+05
-2.718370000000000000e+05
-2.703690000000000000e+05
-2.765220000000000000e+05
-2.808080000000000000e+05
-2.784940000000000000e+05
-2.719440000000000000e+05
-2.703770000000000000e+05
-2.762790000000000000e+05
-2.806730000000000000e+05
-2.786500000000000000e+05
-2.722480000000000000e+05
-2.704250000000000000e+05
-2.763250000000000000e+05
-2.807300000000000000e+05
-2.787490000000000000e+05
-2.721890000000000000e+05
-2.702920000000000000e+05
-2.761280000000000000e+05
-2.806460000000000000e+05
-2.785910000000000000e+05
-2.721750000000000000e+05
-2.701420000000000000e+05
-2.759980000000000000e+05
-2.805760000000000000e+05
-2.787600000000000000e+05
-2.723560000000000000e+05
-2.702330000000000000e+05
-2.760460000000000000e+05
-2.805120000000000000e+05
-2.788990000000000000e+05
-2.724760000000000000e+05
-2.701740000000000000e+05
-2.759490000000000000e+05
-2.807520000000000000e+05
-2.791230000000000000e+05
-2.727090000000000000e+05
-2.702120000000000000e+05
-2.757490000000000000e+05
-2.805510000000000000e+05
-2.791120000000000000e+05
-2.728090000000000000e+05
-2.701120000000000000e+05
-2.757920000000000000e+05
-2.805490000000000000e+05
-2.791760000000000000e+05
-2.728760000000000000e+05
-2.700320000000000000e+05
-2.757140000000000000e+05
-2.806880000000000000e+05
-2.792890000000000000e+05
-2.730010000000000000e+05
-2.700930000000000000e+05
-2.756010000000000000e+05
-2.806180000000000000e+05
-2.793170000000000000e+05
-2.731570000000000000e+05
-2.702040000000000000e+05
-2.755690000000000000e+05
-2.806370000000000000e+05
-2.794140000000000000e+05
-2.733490000000000000e+05
-2.701180000000000000e+05
-2.754540000000000000e+05
-2.806000000000000000e+05
-2.796270000000000000e+05
-2.734860000000000000e+05
-2.701150000000000000e+05
-2.753540000000000000e+05
-2.805290000000000000e+05
-2.796850000000000000e+05
-2.734970000000000000e+05
-2.699890000000000000e+05
-2.751710000000000000e+05
-2.804340000000000000e+05
-2.798290000000000000e+05
-2.737070000000000000e+05
-2.700870000000000000e+05
-2.751060000000000000e+05
-2.803790000000000000e+05
-2.796470000000000000e+05
-2.737380000000000000e+05
-2.700430000000000000e+05
-2.750240000000000000e+05
-2.803750000000000000e+05
-2.798060000000000000e+05
-2.737620000000000000e+05
-2.698840000000000000e+05
-2.748200000000000000e+05
-2.804000000000000000e+05
-2.800500000000000000e+05
-2.740760000000000000e+05
-2.699050000000000000e+05
-2.748220000000000000e+05
-2.803120000000000000e+05
-2.800200000000000000e+05
-2.742250000000000000e+05
-2.699960000000000000e+05
-2.746870000000000000e+05
-2.803060000000000000e+05
-2.801160000000000000e+05
-2.742460000000000000e+05
-2.699450000000000000e+05
-2.746690000000000000e+05
-2.802490000000000000e+05
-2.800870000000000000e+05
-2.742360000000000000e+05
-2.698270000000000000e+05
-2.743560000000000000e+05
-2.802010000000000000e+05
-2.801920000000000000e+05
-2.744760000000000000e+05
-2.699590000000000000e+05
-2.743110000000000000e+05
-2.800210000000000000e+05
-2.801550000000000000e+05
-2.743730000000000000e+05
-2.698590000000000000e+05
-2.742310000000000000e+05
-2.800320000000000000e+05
-2.802660000000000000e+05
-2.746550000000000000e+05
-2.700530000000000000e+05
-2.740620000000000000e+05
-2.800320000000000000e+05
-2.804190000000000000e+05
-2.748090000000000000e+05
-2.699490000000000000e+05
-2.740700000000000000e+05
-2.799960000000000000e+05
-2.803760000000000000e+05
-2.748190000000000000e+05
-2.699340000000000000e+05
-2.736700000000000000e+05
-2.792960000000000000e+05
-2.792340000000000000e+05
-2.733510000000000000e+05
-2.676570000000000000e+05
-2.689520000000000000e+05
-2.731630000000000000e+05
-2.769870000000000000e+05
-2.720120000000000000e+05
-2.663720000000000000e+05
-2.729810000000000000e+05
-2.809220000000000000e+05
-2.817310000000000000e+05
-2.764910000000000000e+05
-2.716270000000000000e+05
-2.748320000000000000e+05
-2.805620000000000000e+05
-2.812560000000000000e+05
-2.759120000000000000e+05
-2.704750000000000000e+05
-2.738180000000000000e+05
-2.798840000000000000e+05
-2.808470000000000000e+05
-2.756570000000000000e+05
-2.702070000000000000e+05
-2.735810000000000000e+05
-2.798020000000000000e+05
-2.809010000000000000e+05
-2.759570000000000000e+05
-2.705590000000000000e+05
-2.736070000000000000e+05
-2.798000000000000000e+05
-2.810570000000000000e+05
-2.760510000000000000e+05
-2.703510000000000000e+05
-2.733220000000000000e+05
-2.796930000000000000e+05
-2.810270000000000000e+05
-2.761570000000000000e+05
-2.704870000000000000e+05
-2.733650000000000000e+05
-2.797130000000000000e+05
-2.810610000000000000e+05
-2.763230000000000000e+05
-2.705780000000000000e+05
-2.733220000000000000e+05
-2.796110000000000000e+05
-2.812270000000000000e+05
-2.765180000000000000e+05
-2.706790000000000000e+05
-2.731510000000000000e+05
-2.794380000000000000e+05
-2.811270000000000000e+05
-2.763950000000000000e+05
-2.705020000000000000e+05
-2.729310000000000000e+05
-2.792740000000000000e+05
-2.809710000000000000e+05
-2.764650000000000000e+05
-2.706370000000000000e+05
-2.729120000000000000e+05
-2.792610000000000000e+05
-2.811930000000000000e+05
-2.765340000000000000e+05
-2.704620000000000000e+05
-2.725950000000000000e+05
-2.787670000000000000e+05
-2.807470000000000000e+05
-2.765770000000000000e+05
-2.704570000000000000e+05
-2.726110000000000000e+05
-2.791690000000000000e+05
-2.811860000000000000e+05
-2.765940000000000000e+05
-2.705110000000000000e+05
-2.725050000000000000e+05
-2.787940000000000000e+05
-2.810040000000000000e+05
-2.768850000000000000e+05
-2.706840000000000000e+05
-2.722140000000000000e+05
-2.788770000000000000e+05
-2.812240000000000000e+05
-2.769800000000000000e+05
-2.706860000000000000e+05
-2.722120000000000000e+05
-2.787170000000000000e+05
-2.811790000000000000e+05
-2.770390000000000000e+05
-2.706100000000000000e+05
-2.718930000000000000e+05
-2.785570000000000000e+05
-2.811540000000000000e+05
-2.771360000000000000e+05
-2.710020000000000000e+05
-2.721370000000000000e+05
-2.786010000000000000e+05
-2.812150000000000000e+05
-2.772460000000000000e+05
-2.708910000000000000e+05
-2.719180000000000000e+05
-2.784290000000000000e+05
-2.811860000000000000e+05
-2.773970000000000000e+05
-2.708680000000000000e+05
-2.718980000000000000e+05
-2.784010000000000000e+05
-2.813420000000000000e+05
-2.775930000000000000e+05
-2.710010000000000000e+05
-2.717720000000000000e+05
-2.782260000000000000e+05
-2.811520000000000000e+05
-2.775410000000000000e+05
-2.709950000000000000e+05
-2.712740000000000000e+05
-2.775490000000000000e+05
-2.809520000000000000e+05
-2.776290000000000000e+05
-2.711840000000000000e+05
-2.717930000000000000e+05
-2.781370000000000000e+05
-2.810410000000000000e+05
-2.775010000000000000e+05
-2.711740000000000000e+05
-2.717310000000000000e+05
-2.778650000000000000e+05
-2.810110000000000000e+05
-2.778020000000000000e+05
-2.711130000000000000e+05
-2.710960000000000000e+05
-2.771840000000000000e+05
-2.796640000000000000e+05
-2.755540000000000000e+05
-2.677320000000000000e+05
-2.667370000000000000e+05
-2.762010000000000000e+05
-2.823650000000000000e+05
-2.791770000000000000e+05
-2.706940000000000000e+05
-2.679520000000000000e+05
-2.750540000000000000e+05
-2.784930000000000000e+05
-2.740140000000000000e+05
-2.671480000000000000e+05
-2.660770000000000000e+05
-2.738790000000000000e+05
-2.794660000000000000e+05
-2.762720000000000000e+05
-2.676630000000000000e+05
-2.638090000000000000e+05
-2.662890000000000000e+05
-2.728320000000000000e+05
-2.724660000000000000e+05
-2.597910000000000000e+05
-2.577780000000000000e+05
-2.745200000000000000e+05
-2.847570000000000000e+05
-2.803150000000000000e+05
-2.692290000000000000e+05
-2.650760000000000000e+05
-2.653480000000000000e+05
-2.610820000000000000e+05
-2.625320000000000000e+05
-2.567760000000000000e+05
-2.589860000000000000e+05
-2.716070000000000000e+05
-2.737840000000000000e+05
-2.683970000000000000e+05
-2.599820000000000000e+05
-2.507650000000000000e+05
-2.540060000000000000e+05
-2.663310000000000000e+05
-2.645640000000000000e+05
-2.498210000000000000e+05
-2.494120000000000000e+05
-2.622830000000000000e+05
-2.638900000000000000e+05
-2.538590000000000000e+05
-2.480730000000000000e+05
-2.464930000000000000e+05
-2.594010000000000000e+05
-2.622940000000000000e+05
-2.574750000000000000e+05
-2.468610000000000000e+05
-2.472290000000000000e+05
-2.577220000000000000e+05
-2.578520000000000000e+05
-2.557720000000000000e+05
-2.507470000000000000e+05
-2.494810000000000000e+05
-2.594130000000000000e+05
-2.692620000000000000e+05
-2.614580000000000000e+05
-2.483590000000000000e+05
-2.443490000000000000e+05
-2.514940000000000000e+05
-2.555580000000000000e+05
-2.508370000000000000e+05
-2.432240000000000000e+05
-2.426370000000000000e+05
-2.598540000000000000e+05
-2.740750000000000000e+05
-2.607900000000000000e+05
-2.492310000000000000e+05
-2.471560000000000000e+05
-2.517560000000000000e+05
-2.566260000000000000e+05
-2.539640000000000000e+05
-2.430410000000000000e+05
-2.438880000000000000e+05
-2.610400000000000000e+05
-2.661260000000000000e+05
-2.559070000000000000e+05
-2.474270000000000000e+05
-2.486740000000000000e+05
-2.616310000000000000e+05
-2.646040000000000000e+05
-2.520150000000000000e+05
-2.360460000000000000e+05
-2.392590000000000000e+05
-2.552430000000000000e+05
-2.648920000000000000e+05
-2.536840000000000000e+05
-2.495180000000000000e+05
-2.475420000000000000e+05
-2.521130000000000000e+05
-2.519110000000000000e+05
-2.509280000000000000e+05
-2.522240000000000000e+05
-2.403250000000000000e+05
-2.440960000000000000e+05
-2.676460000000000000e+05
-2.591820000000000000e+05
-2.399160000000000000e+05
-2.405260000000000000e+05
-2.482810000000000000e+05
-2.526660000000000000e+05
-2.517240000000000000e+05
-2.555470000000000000e+05
-2.457000000000000000e+05
-2.466220000000000000e+05
-2.540620000000000000e+05
-2.526050000000000000e+05
-2.419840000000000000e+05
-2.399920000000000000e+05
-2.419760000000000000e+05
-2.576640000000000000e+05
-2.639510000000000000e+05
-2.458460000000000000e+05
-2.398410000000000000e+05
-2.488700000000000000e+05
-2.491510000000000000e+05
-2.423030000000000000e+05
-2.359630000000000000e+05
-2.415420000000000000e+05
-2.510150000000000000e+05
-2.571080000000000000e+05
-2.583940000000000000e+05
-2.424720000000000000e+05
-2.400440000000000000e+05
-2.505220000000000000e+05
-2.572450000000000000e+05
-2.553820000000000000e+05
-2.398060000000000000e+05
-2.330420000000000000e+05
-2.359710000000000000e+05
-2.564510000000000000e+05
-2.562220000000000000e+05
-2.448700000000000000e+05
-2.339030000000000000e+05
-2.398190000000000000e+05
-2.468290000000000000e+05
-2.573950000000000000e+05
-2.506060000000000000e+05
-2.318380000000000000e+05
-2.344530000000000000e+05
-2.511300000000000000e+05
-2.523490000000000000e+05
-2.431440000000000000e+05
-2.416620000000000000e+05
-2.427760000000000000e+05
-2.449220000000000000e+05
-2.525410000000000000e+05
-2.497160000000000000e+05
-2.386910000000000000e+05
-2.379820000000000000e+05
-2.447990000000000000e+05
-2.419760000000000000e+05
-2.506090000000000000e+05
-2.396880000000000000e+05
-2.444360000000000000e+05
-2.512510000000000000e+05
-2.446290000000000000e+05
-2.296630000000000000e+05
-2.300300000000000000e+05
-2.533110000000000000e+05
-2.646780000000000000e+05
-2.513020000000000000e+05
-2.285330000000000000e+05
-2.365720000000000000e+05
-2.478010000000000000e+05
-2.569070000000000000e+05
-2.549650000000000000e+05
-2.409960000000000000e+05
-2.310050000000000000e+05
-2.370670000000000000e+05
-2.441490000000000000e+05
-2.417600000000000000e+05
-2.413470000000000000e+05
-2.396340000000000000e+05
-2.450600000000000000e+05
-2.497290000000000000e+05
-2.629820000000000000e+05
-2.497210000000000000e+05
-2.384020000000000000e+05
-2.463080000000000000e+05
-2.519270000000000000e+05
-2.513350000000000000e+05
-2.469970000000000000e+05
-2.450730000000000000e+05
-2.513000000000000000e+05
-2.557280000000000000e+05
-2.530400000000000000e+05
-2.419690000000000000e+05
-2.324610000000000000e+05
-2.461810000000000000e+05
-2.516370000000000000e+05
-2.498670000000000000e+05
-2.505920000000000000e+05
-2.472680000000000000e+05
-2.517240000000000000e+05
-2.551440000000000000e+05
-2.568160000000000000e+05
-2.517140000000000000e+05
-2.459610000000000000e+05
-2.478740000000000000e+05
-2.555680000000000000e+05
-2.570340000000000000e+05
-2.515060000000000000e+05
-2.458790000000000000e+05
-2.488720000000000000e+05
-2.566760000000000000e+05
-2.604060000000000000e+05
-2.531760000000000000e+05
-2.470210000000000000e+05
-2.505240000000000000e+05
-2.568700000000000000e+05
-2.597970000000000000e+05
-2.546920000000000000e+05
-2.473420000000000000e+05
-2.507570000000000000e+05
-2.584080000000000000e+05
-2.596490000000000000e+05
-2.548380000000000000e+05
-2.496080000000000000e+05
-2.524820000000000000e+05
-2.611350000000000000e+05
-2.624480000000000000e+05
-2.568770000000000000e+05
-2.519620000000000000e+05
-2.549170000000000000e+05
-2.618340000000000000e+05
-2.644450000000000000e+05
-2.593590000000000000e+05
-2.530020000000000000e+05
-2.558840000000000000e+05
-2.633140000000000000e+05
-2.650270000000000000e+05
-2.594740000000000000e+05
-2.533490000000000000e+05
-2.567600000000000000e+05
-2.642380000000000000e+05
-2.664030000000000000e+05
-2.614390000000000000e+05
-2.547590000000000000e+05
-2.576420000000000000e+05
-2.650310000000000000e+05
-2.672810000000000000e+05
-2.628270000000000000e+05
-2.566020000000000000e+05
-2.592210000000000000e+05
-2.671870000000000000e+05
-2.702980000000000000e+05
-2.649650000000000000e+05
-2.585460000000000000e+05
-2.611560000000000000e+05
-2.682470000000000000e+05
-2.701540000000000000e+05
-2.651870000000000000e+05
-2.585050000000000000e+05
-2.610340000000000000e+05
-2.683180000000000000e+05
-2.704580000000000000e+05
-2.653490000000000000e+05
-2.584570000000000000e+05
-2.606180000000000000e+05
-2.679970000000000000e+05
-2.701640000000000000e+05
-2.652380000000000000e+05
-2.584850000000000000e+05
-2.606360000000000000e+05
-2.682130000000000000e+05
-2.710460000000000000e+05
-2.662180000000000000e+05
-2.591540000000000000e+05
-2.611340000000000000e+05
-2.685820000000000000e+05
-2.713170000000000000e+05
-2.667370000000000000e+05
-2.598130000000000000e+05
-2.614740000000000000e+05
-2.689390000000000000e+05
-2.717820000000000000e+05
-2.671610000000000000e+05
-2.602880000000000000e+05
-2.619110000000000000e+05
-2.694250000000000000e+05
-2.723220000000000000e+05
-2.675740000000000000e+05
-2.608090000000000000e+05
-2.625040000000000000e+05
-2.693410000000000000e+05
-2.717740000000000000e+05
-2.678980000000000000e+05
-2.611440000000000000e+05
-2.622420000000000000e+05
-2.695690000000000000e+05
-2.727910000000000000e+05
-2.685420000000000000e+05
-2.616890000000000000e+05
-2.627370000000000000e+05
-2.699550000000000000e+05
-2.729910000000000000e+05
-2.689720000000000000e+05
-2.620610000000000000e+05
-2.627850000000000000e+05
-2.699160000000000000e+05
-2.733530000000000000e+05
-2.695270000000000000e+05
-2.621820000000000000e+05
-2.627240000000000000e+05
-2.700000000000000000e+05
-2.734990000000000000e+05
-2.695640000000000000e+05
-2.624540000000000000e+05
-2.629690000000000000e+05
-2.698120000000000000e+05
-2.730940000000000000e+05
-2.696860000000000000e+05
-2.629830000000000000e+05
-2.630940000000000000e+05
-2.698460000000000000e+05
-2.734270000000000000e+05
-2.703230000000000000e+05
-2.637040000000000000e+05
-2.636290000000000000e+05
-2.701980000000000000e+05
-2.739510000000000000e+05
-2.704340000000000000e+05
-2.635830000000000000e+05
-2.637640000000000000e+05
-2.707120000000000000e+05
-2.743970000000000000e+05
-2.708860000000000000e+05
-2.639020000000000000e+05
-2.637210000000000000e+05
-2.706600000000000000e+05
-2.743080000000000000e+05
-2.711770000000000000e+05
-2.641110000000000000e+05
-2.637170000000000000e+05
-2.708580000000000000e+05
-2.745770000000000000e+05
-2.713090000000000000e+05
-2.643680000000000000e+05
-2.637930000000000000e+05
-2.706680000000000000e+05
-2.749430000000000000e+05
-2.717190000000000000e+05
-2.644380000000000000e+05
-2.638570000000000000e+05
-2.708790000000000000e+05
-2.749140000000000000e+05
-2.717130000000000000e+05
-2.644820000000000000e+05
-2.636670000000000000e+05
-2.708640000000000000e+05
-2.752140000000000000e+05
-2.721040000000000000e+05
-2.648230000000000000e+05
-2.636140000000000000e+05
-2.705510000000000000e+05
-2.748870000000000000e+05
-2.719840000000000000e+05
-2.648640000000000000e+05
-2.636350000000000000e+05
-2.705380000000000000e+05
-2.750160000000000000e+05
-2.720960000000000000e+05
-2.649830000000000000e+05
-2.636640000000000000e+05
-2.705830000000000000e+05
-2.749300000000000000e+05
-2.720140000000000000e+05
-2.649320000000000000e+05
-2.634730000000000000e+05
-2.703210000000000000e+05
-2.750100000000000000e+05
-2.725860000000000000e+05
-2.657430000000000000e+05
-2.642300000000000000e+05
-2.711000000000000000e+05
-2.758990000000000000e+05
-2.732380000000000000e+05
-2.656870000000000000e+05
-2.633760000000000000e+05
-2.695760000000000000e+05
-2.741540000000000000e+05
-2.720350000000000000e+05
-2.653490000000000000e+05
-2.632960000000000000e+05
-2.699650000000000000e+05
-2.749560000000000000e+05
-2.726850000000000000e+05
-2.656740000000000000e+05
-2.636590000000000000e+05
-2.701420000000000000e+05
-2.751670000000000000e+05
-2.730380000000000000e+05
-2.659620000000000000e+05
-2.637190000000000000e+05
-2.704040000000000000e+05
-2.751440000000000000e+05
-2.729260000000000000e+05
-2.658120000000000000e+05
-2.633770000000000000e+05
-2.700490000000000000e+05
-2.752840000000000000e+05
-2.729920000000000000e+05
-2.659190000000000000e+05
-2.633360000000000000e+05
-2.698180000000000000e+05
-2.751720000000000000e+05
-2.732570000000000000e+05
-2.661040000000000000e+05
-2.632510000000000000e+05
-2.697270000000000000e+05
-2.751830000000000000e+05
-2.734560000000000000e+05
-2.662530000000000000e+05
-2.631410000000000000e+05
-2.695020000000000000e+05
-2.749540000000000000e+05
-2.734820000000000000e+05
-2.664840000000000000e+05
-2.632450000000000000e+05
-2.694920000000000000e+05
-2.749560000000000000e+05
-2.733660000000000000e+05
-2.663720000000000000e+05
-2.630130000000000000e+05
-2.692040000000000000e+05
-2.749880000000000000e+05
-2.736040000000000000e+05
-2.664840000000000000e+05
-2.629210000000000000e+05
-2.691540000000000000e+05
-2.750620000000000000e+05
-2.736570000000000000e+05
-2.666760000000000000e+05
-2.629290000000000000e+05
-2.692620000000000000e+05
-2.752100000000000000e+05
-2.740080000000000000e+05
-2.670490000000000000e+05
-2.632050000000000000e+05
-2.692110000000000000e+05
-2.751410000000000000e+05
-2.739110000000000000e+05
-2.670130000000000000e+05
-2.635220000000000000e+05
-2.693420000000000000e+05
-2.749720000000000000e+05
-2.739800000000000000e+05
-2.671290000000000000e+05
-2.631800000000000000e+05
-2.689400000000000000e+05
-2.747920000000000000e+05
-2.740100000000000000e+05
-2.672810000000000000e+05
-2.630540000000000000e+05
-2.686500000000000000e+05
-2.748290000000000000e+05
-2.740790000000000000e+05
-2.673820000000000000e+05
-2.630320000000000000e+05
-2.685560000000000000e+05
-2.748370000000000000e+05
-2.742990000000000000e+05
-2.675810000000000000e+05
-2.629650000000000000e+05
-2.682930000000000000e+05
-2.746060000000000000e+05
-2.743370000000000000e+05
-2.677990000000000000e+05
-2.629920000000000000e+05
-2.682810000000000000e+05
-2.745870000000000000e+05
-2.743260000000000000e+05
-2.676760000000000000e+05
-2.628640000000000000e+05
-2.682020000000000000e+05
-2.746580000000000000e+05
-2.744140000000000000e+05
-2.679060000000000000e+05
-2.628930000000000000e+05
-2.679890000000000000e+05
-2.744790000000000000e+05
-2.743640000000000000e+05
-2.678570000000000000e+05
-2.629070000000000000e+05
-2.679490000000000000e+05
-2.745260000000000000e+05
-2.743450000000000000e+05
-2.678150000000000000e+05
-2.628010000000000000e+05
-2.677220000000000000e+05
-2.743340000000000000e+05
-2.744910000000000000e+05
-2.680860000000000000e+05
-2.629140000000000000e+05
-2.676690000000000000e+05
-2.744480000000000000e+05
-2.746410000000000000e+05
-2.681850000000000000e+05
-2.630450000000000000e+05
-2.676910000000000000e+05
-2.743200000000000000e+05
-2.745410000000000000e+05
-2.683880000000000000e+05
-2.629810000000000000e+05
-2.675240000000000000e+05
-2.743810000000000000e+05
-2.751130000000000000e+05
-2.689990000000000000e+05
-2.631910000000000000e+05
-2.672660000000000000e+05
-2.740460000000000000e+05
-2.745670000000000000e+05
-2.687460000000000000e+05
-2.632370000000000000e+05
-2.673090000000000000e+05
-2.741400000000000000e+05
-2.748460000000000000e+05
-2.689760000000000000e+05
-2.635120000000000000e+05
-2.674720000000000000e+05
-2.740360000000000000e+05
-2.749640000000000000e+05
-2.692590000000000000e+05
-2.635210000000000000e+05
-2.672660000000000000e+05
-2.739750000000000000e+05
-2.750970000000000000e+05
-2.694950000000000000e+05
-2.635090000000000000e+05
-2.672740000000000000e+05
-2.743730000000000000e+05
-2.753600000000000000e+05
-2.697070000000000000e+05
-2.636450000000000000e+05
-2.671640000000000000e+05
-2.740600000000000000e+05
-2.751260000000000000e+05
-2.696670000000000000e+05
-2.636620000000000000e+05
-2.671260000000000000e+05
-2.743590000000000000e+05
-2.759200000000000000e+05
-2.706120000000000000e+05
-2.645400000000000000e+05
-2.677230000000000000e+05
-2.746590000000000000e+05
-2.759120000000000000e+05
-2.700590000000000000e+05
-2.631590000000000000e+05
-2.660740000000000000e+05
-2.734110000000000000e+05
-2.754010000000000000e+05
-2.702350000000000000e+05
-2.639850000000000000e+05
-2.670240000000000000e+05
-2.741170000000000000e+05
-2.758570000000000000e+05
-2.708420000000000000e+05
-2.642160000000000000e+05
-2.671250000000000000e+05
-2.741910000000000000e+05
-2.759020000000000000e+05
-2.709060000000000000e+05
-2.645330000000000000e+05
-2.671730000000000000e+05
-2.741660000000000000e+05
-2.761360000000000000e+05
-2.710470000000000000e+05
-2.645070000000000000e+05
-2.670740000000000000e+05
-2.743220000000000000e+05
-2.764570000000000000e+05
-2.714740000000000000e+05
-2.647790000000000000e+05
-2.670020000000000000e+05
-2.745220000000000000e+05
-2.768210000000000000e+05
-2.714540000000000000e+05
-2.648120000000000000e+05
-2.670070000000000000e+05
-2.741800000000000000e+05
-2.764340000000000000e+05
-2.719310000000000000e+05
-2.651610000000000000e+05
-2.670910000000000000e+05
-2.743270000000000000e+05
-2.768830000000000000e+05
-2.721990000000000000e+05
-2.654850000000000000e+05
-2.673170000000000000e+05
-2.745720000000000000e+05
-2.771040000000000000e+05
-2.725520000000000000e+05
-2.658240000000000000e+05
-2.672970000000000000e+05
-2.743760000000000000e+05
-2.772950000000000000e+05
-2.727200000000000000e+05
-2.655910000000000000e+05
-2.672610000000000000e+05
-2.748030000000000000e+05
-2.774940000000000000e+05
-2.729740000000000000e+05
-2.658850000000000000e+05
-2.674770000000000000e+05
-2.748020000000000000e+05
-2.777890000000000000e+05
-2.735110000000000000e+05
-2.666100000000000000e+05
-2.676240000000000000e+05
-2.747960000000000000e+05
-2.778620000000000000e+05
-2.735460000000000000e+05
-2.665150000000000000e+05
-2.675400000000000000e+05
-2.749030000000000000e+05
-2.780750000000000000e+05
-2.739820000000000000e+05
-2.669170000000000000e+05
-2.677740000000000000e+05
-2.751440000000000000e+05
-2.784000000000000000e+05
-2.742150000000000000e+05
-2.671860000000000000e+05
-2.679660000000000000e+05
-2.753240000000000000e+05
-2.787530000000000000e+05
-2.745350000000000000e+05
-2.672350000000000000e+05
-2.678270000000000000e+05
-2.751580000000000000e+05
-2.786390000000000000e+05
-2.747320000000000000e+05
-2.676790000000000000e+05
-2.682070000000000000e+05
-2.752230000000000000e+05
-2.787310000000000000e+05
-2.752110000000000000e+05
-2.681820000000000000e+05
-2.683390000000000000e+05
-2.755420000000000000e+05
-2.792170000000000000e+05
-2.755590000000000000e+05
-2.684310000000000000e+05
-2.684210000000000000e+05
-2.754110000000000000e+05
-2.792760000000000000e+05
-2.759570000000000000e+05
-2.685770000000000000e+05
-2.683530000000000000e+05
-2.755440000000000000e+05
-2.795090000000000000e+05
-2.762410000000000000e+05
-2.690000000000000000e+05
-2.686710000000000000e+05
-2.759640000000000000e+05
-2.797940000000000000e+05
-2.761360000000000000e+05
-2.691510000000000000e+05
-2.687980000000000000e+05
-2.759460000000000000e+05
-2.801080000000000000e+05
-2.768570000000000000e+05
-2.694370000000000000e+05
-2.689560000000000000e+05
-2.759810000000000000e+05
-2.801140000000000000e+05
-2.772270000000000000e+05
-2.699720000000000000e+05
-2.693180000000000000e+05
-2.762610000000000000e+05
-2.802760000000000000e+05
-2.773210000000000000e+05
-2.703270000000000000e+05
-2.692720000000000000e+05
-2.763010000000000000e+05
-2.807210000000000000e+05
-2.778420000000000000e+05
-2.706710000000000000e+05
-2.694270000000000000e+05
-2.762890000000000000e+05
-2.809750000000000000e+05
-2.782680000000000000e+05
-2.710870000000000000e+05
-2.697770000000000000e+05
-2.765770000000000000e+05
-2.809580000000000000e+05
-2.783940000000000000e+05
-2.713060000000000000e+05
-2.696640000000000000e+05
-2.764530000000000000e+05
-2.813390000000000000e+05
-2.788340000000000000e+05
-2.714970000000000000e+05
-2.696710000000000000e+05
-2.765710000000000000e+05
-2.813780000000000000e+05
-2.790640000000000000e+05
-2.722640000000000000e+05
-2.702620000000000000e+05
-2.768120000000000000e+05
-2.816260000000000000e+05
-2.791230000000000000e+05
-2.718660000000000000e+05
-2.702060000000000000e+05
-2.768150000000000000e+05
-2.817870000000000000e+05
-2.797770000000000000e+05
-2.728450000000000000e+05
-2.708250000000000000e+05
-2.776110000000000000e+05
-2.827830000000000000e+05
-2.807200000000000000e+05
-2.733990000000000000e+05
-2.705590000000000000e+05
-2.766510000000000000e+05
-2.815500000000000000e+05
-2.794290000000000000e+05
-2.723960000000000000e+05
-2.701990000000000000e+05
-2.768940000000000000e+05
-2.823450000000000000e+05
-2.804740000000000000e+05
-2.735340000000000000e+05
-2.710370000000000000e+05
-2.772190000000000000e+05
-2.826120000000000000e+05
-2.809790000000000000e+05
-2.739560000000000000e+05
-2.709820000000000000e+05
-2.772720000000000000e+05
-2.826220000000000000e+05
-2.810000000000000000e+05
-2.742920000000000000e+05
-2.711870000000000000e+05
-2.772740000000000000e+05
-2.830160000000000000e+05
-2.815310000000000000e+05
-2.744640000000000000e+05
-2.712340000000000000e+05
-2.774120000000000000e+05
-2.830480000000000000e+05
-2.817270000000000000e+05
-2.748830000000000000e+05
-2.714600000000000000e+05
-2.774990000000000000e+05
-2.833090000000000000e+05
-2.820420000000000000e+05
-2.751070000000000000e+05
-2.714390000000000000e+05
-2.774860000000000000e+05
-2.834480000000000000e+05
-2.821870000000000000e+05
-2.751220000000000000e+05
-2.715590000000000000e+05
-2.775570000000000000e+05
-2.833510000000000000e+05
-2.822870000000000000e+05
-2.756490000000000000e+05
-2.716900000000000000e+05
-2.775490000000000000e+05
-2.837520000000000000e+05
-2.826290000000000000e+05
-2.757660000000000000e+05
-2.719410000000000000e+05
-2.775410000000000000e+05
-2.836870000000000000e+05
-2.829190000000000000e+05
-2.759090000000000000e+05
-2.719940000000000000e+05
-2.776170000000000000e+05
-2.837360000000000000e+05
-2.831840000000000000e+05
-2.764990000000000000e+05
-2.721020000000000000e+05
-2.774970000000000000e+05
-2.837370000000000000e+05
-2.833140000000000000e+05
-2.767240000000000000e+05
-2.723940000000000000e+05
-2.776760000000000000e+05
-2.839120000000000000e+05
-2.835110000000000000e+05
-2.769410000000000000e+05
-2.725860000000000000e+05
-2.779070000000000000e+05
-2.840590000000000000e+05
-2.838020000000000000e+05
-2.772690000000000000e+05
-2.726930000000000000e+05
-2.778230000000000000e+05
-2.842550000000000000e+05
-2.840560000000000000e+05
-2.776240000000000000e+05
-2.727490000000000000e+05
-2.778240000000000000e+05
-2.842310000000000000e+05
-2.840520000000000000e+05
-2.780590000000000000e+05
-2.732430000000000000e+05
-2.779260000000000000e+05
-2.844220000000000000e+05
-2.843590000000000000e+05
-2.780190000000000000e+05
-2.730700000000000000e+05
-2.778810000000000000e+05
-2.845130000000000000e+05
-2.848360000000000000e+05
-2.785450000000000000e+05
-2.731900000000000000e+05
-2.779610000000000000e+05
-2.844880000000000000e+05
-2.846420000000000000e+05
-2.785810000000000000e+05
-2.735780000000000000e+05
-2.780800000000000000e+05
-2.847320000000000000e+05
-2.850900000000000000e+05
-2.787110000000000000e+05
-2.734190000000000000e+05
-2.781340000000000000e+05
-2.848270000000000000e+05
-2.850690000000000000e+05
-2.789140000000000000e+05
-2.736930000000000000e+05
-2.780690000000000000e+05
-2.850140000000000000e+05
-2.855900000000000000e+05
-2.793790000000000000e+05
-2.738670000000000000e+05
-2.778230000000000000e+05
-2.847390000000000000e+05
-2.855670000000000000e+05
-2.796220000000000000e+05
-2.740520000000000000e+05
-2.780340000000000000e+05
-2.849300000000000000e+05
-2.857210000000000000e+05
-2.798490000000000000e+05
-2.741620000000000000e+05
-2.780390000000000000e+05
-2.849020000000000000e+05
-2.856730000000000000e+05
-2.799950000000000000e+05
-2.743870000000000000e+05
-2.781090000000000000e+05
-2.849360000000000000e+05
-2.860700000000000000e+05
-2.802990000000000000e+05
-2.744400000000000000e+05
-2.780910000000000000e+05
-2.849060000000000000e+05
-2.860960000000000000e+05
-2.804860000000000000e+05
-2.745890000000000000e+05
-2.780240000000000000e+05
-2.849990000000000000e+05
-2.861300000000000000e+05
-2.806250000000000000e+05
-2.745840000000000000e+05
-2.779490000000000000e+05
-2.849460000000000000e+05
-2.863780000000000000e+05
-2.807610000000000000e+05
-2.747470000000000000e+05
-2.779880000000000000e+05
-2.849810000000000000e+05
-2.864140000000000000e+05
-2.809720000000000000e+05
-2.748410000000000000e+05
-2.778370000000000000e+05
-2.849840000000000000e+05
-2.866640000000000000e+05
-2.812020000000000000e+05
-2.748990000000000000e+05
-2.780970000000000000e+05
-2.853760000000000000e+05
-2.870790000000000000e+05
-2.820010000000000000e+05
-2.757330000000000000e+05
-2.783670000000000000e+05
-2.855660000000000000e+05
-2.872120000000000000e+05
-2.810640000000000000e+05
-2.743140000000000000e+05
-2.767850000000000000e+05
-2.842370000000000000e+05
-2.865190000000000000e+05
-2.816280000000000000e+05
-2.753060000000000000e+05
-2.778540000000000000e+05
-2.850010000000000000e+05
-2.870570000000000000e+05
-2.823170000000000000e+05
-2.757000000000000000e+05
-2.777290000000000000e+05
-2.848760000000000000e+05
-2.874900000000000000e+05
-2.825010000000000000e+05
-2.756960000000000000e+05
-2.777760000000000000e+05
-2.849490000000000000e+05
-2.873300000000000000e+05
-2.822530000000000000e+05
-2.753420000000000000e+05
-2.776790000000000000e+05
-2.850590000000000000e+05
-2.875020000000000000e+05
-2.827060000000000000e+05
-2.759910000000000000e+05
-2.776810000000000000e+05
-2.848010000000000000e+05
-2.875290000000000000e+05
-2.827890000000000000e+05
-2.757800000000000000e+05
-2.776410000000000000e+05
-2.850440000000000000e+05
-2.875640000000000000e+05
-2.829880000000000000e+05
-2.761590000000000000e+05
-2.774260000000000000e+05
-2.848440000000000000e+05
-2.876790000000000000e+05
-2.829780000000000000e+05
-2.761840000000000000e+05
-2.774160000000000000e+05
-2.845580000000000000e+05
-2.875050000000000000e+05
-2.831740000000000000e+05
-2.763880000000000000e+05
-2.774490000000000000e+05
-2.845460000000000000e+05
-2.875960000000000000e+05
-2.832790000000000000e+05
-2.762360000000000000e+05
-2.770720000000000000e+05
-2.843170000000000000e+05
-2.877010000000000000e+05
-2.834440000000000000e+05
-2.764950000000000000e+05
-2.774360000000000000e+05
-2.843670000000000000e+05
-2.875380000000000000e+05
-2.835420000000000000e+05
-2.766420000000000000e+05
-2.771640000000000000e+05
-2.841950000000000000e+05
-2.875640000000000000e+05
-2.838500000000000000e+05
-2.767160000000000000e+05
-2.769090000000000000e+05
-2.841340000000000000e+05
-2.878230000000000000e+05
-2.838060000000000000e+05
-2.767320000000000000e+05
-2.770650000000000000e+05
-2.842510000000000000e+05
-2.875630000000000000e+05
-2.838820000000000000e+05
-2.768830000000000000e+05
-2.768610000000000000e+05
-2.839560000000000000e+05
-2.876450000000000000e+05
-2.842060000000000000e+05
-2.770200000000000000e+05
-2.766590000000000000e+05
-2.839910000000000000e+05
-2.877690000000000000e+05
-2.841010000000000000e+05
-2.769710000000000000e+05
-2.767770000000000000e+05
-2.838470000000000000e+05
-2.877620000000000000e+05
-2.843660000000000000e+05
-2.769960000000000000e+05
-2.764670000000000000e+05
-2.836440000000000000e+05
-2.877970000000000000e+05
-2.773570000000000000e+05
-2.766970000000000000e+05
-2.835890000000000000e+05
-2.876160000000000000e+05
-2.846030000000000000e+05
-2.774670000000000000e+05
-2.763270000000000000e+05
-2.830780000000000000e+05
-2.874680000000000000e+05
-2.846190000000000000e+05
-2.774160000000000000e+05
-2.762410000000000000e+05
-2.831570000000000000e+05
-2.877040000000000000e+05
-2.847890000000000000e+05
-2.775420000000000000e+05
-2.763410000000000000e+05
-2.833140000000000000e+05
-2.876470000000000000e+05
-2.845820000000000000e+05
-2.775880000000000000e+05
-2.762450000000000000e+05
-2.831390000000000000e+05
-2.877250000000000000e+05
-2.850900000000000000e+05
-2.777480000000000000e+05
-2.759340000000000000e+05
-2.826500000000000000e+05
-2.875220000000000000e+05
-2.851110000000000000e+05
-2.778900000000000000e+05
-2.757830000000000000e+05
-2.824810000000000000e+05
-2.876370000000000000e+05
-2.851010000000000000e+05
-2.778830000000000000e+05
-2.759630000000000000e+05
-2.825670000000000000e+05
-2.874840000000000000e+05
-2.851020000000000000e+05
-2.778960000000000000e+05
-2.758940000000000000e+05
-2.824580000000000000e+05
-2.873720000000000000e+05
-2.851390000000000000e+05
-2.779890000000000000e+05
-2.757550000000000000e+05
-2.822270000000000000e+05
-2.872110000000000000e+05
-2.852070000000000000e+05
-2.781660000000000000e+05
-2.756420000000000000e+05
-2.821110000000000000e+05
-2.871060000000000000e+05
-2.849500000000000000e+05
-2.779240000000000000e+05
-2.755460000000000000e+05
-2.819810000000000000e+05
-2.873240000000000000e+05
-2.851040000000000000e+05
-2.779920000000000000e+05
-2.755410000000000000e+05
-2.818910000000000000e+05
-2.871420000000000000e+05
-2.856310000000000000e+05
-2.784890000000000000e+05
-2.755690000000000000e+05
-2.819640000000000000e+05
-2.874820000000000000e+05
-2.860470000000000000e+05
-2.789840000000000000e+05
-2.757310000000000000e+05
-2.813400000000000000e+05
-2.862870000000000000e+05
-2.842980000000000000e+05
-2.774970000000000000e+05
-2.746760000000000000e+05
-2.809940000000000000e+05
-2.868680000000000000e+05
-2.855520000000000000e+05
-2.784120000000000000e+05
-2.749130000000000000e+05
-2.812390000000000000e+05
-2.868970000000000000e+05
-2.853440000000000000e+05
-2.786300000000000000e+05
-2.750530000000000000e+05
-2.810200000000000000e+05
-2.869250000000000000e+05
-2.855000000000000000e+05
-2.785130000000000000e+05
-2.750140000000000000e+05
-2.806690000000000000e+05
-2.866560000000000000e+05
-2.856490000000000000e+05
-2.786480000000000000e+05
-2.749010000000000000e+05
-2.807370000000000000e+05
-2.864610000000000000e+05
-2.852820000000000000e+05
-2.786060000000000000e+05
-2.746520000000000000e+05
-2.802910000000000000e+05
-2.863470000000000000e+05
-2.855500000000000000e+05
-2.787370000000000000e+05
-2.747960000000000000e+05
-2.804740000000000000e+05
-2.863580000000000000e+05
-2.854050000000000000e+05
-2.784760000000000000e+05
-2.744680000000000000e+05
-2.801320000000000000e+05
-2.861740000000000000e+05
-2.853380000000000000e+05
-2.786640000000000000e+05
-2.743770000000000000e+05
-2.798200000000000000e+05
-2.859510000000000000e+05
-2.854000000000000000e+05
-2.787610000000000000e+05
-2.743890000000000000e+05
-2.795670000000000000e+05
-2.858630000000000000e+05
-2.853760000000000000e+05
-2.789040000000000000e+05
-2.744420000000000000e+05
-2.794760000000000000e+05
-2.856920000000000000e+05
-2.851900000000000000e+05
-2.786900000000000000e+05
-2.741070000000000000e+05
-2.791280000000000000e+05
-2.854010000000000000e+05
-2.852930000000000000e+05
-2.790660000000000000e+05
-2.742010000000000000e+05
-2.790320000000000000e+05
-2.853660000000000000e+05
-2.854570000000000000e+05
-2.788760000000000000e+05
-2.740020000000000000e+05
-2.788080000000000000e+05
-2.853140000000000000e+05
-2.852140000000000000e+05
-2.788800000000000000e+05
-2.738150000000000000e+05
-2.784920000000000000e+05
-2.849840000000000000e+05
-2.853810000000000000e+05
-2.790020000000000000e+05
-2.737860000000000000e+05
-2.783170000000000000e+05
-2.848780000000000000e+05
-2.852390000000000000e+05
-2.788690000000000000e+05
-2.736720000000000000e+05
-2.781950000000000000e+05
-2.848030000000000000e+05
-2.853240000000000000e+05
-2.789360000000000000e+05
-2.735470000000000000e+05
-2.778290000000000000e+05
-2.846830000000000000e+05
-2.852690000000000000e+05
-2.791320000000000000e+05
-2.735320000000000000e+05
-2.775520000000000000e+05
-2.844200000000000000e+05
-2.851420000000000000e+05
-2.790500000000000000e+05
-2.734020000000000000e+05
-2.774390000000000000e+05
-2.841790000000000000e+05
-2.849670000000000000e+05
-2.790950000000000000e+05
-2.734100000000000000e+05
-2.771590000000000000e+05
-2.839310000000000000e+05
-2.848540000000000000e+05
-2.791370000000000000e+05
-2.733540000000000000e+05
-2.769590000000000000e+05
-2.839540000000000000e+05
-2.850130000000000000e+05
-2.789790000000000000e+05
-2.732290000000000000e+05
-2.769570000000000000e+05
-2.836820000000000000e+05
-2.847540000000000000e+05
-2.790400000000000000e+05
-2.730190000000000000e+05
-2.764950000000000000e+05
-2.836140000000000000e+05
-2.848970000000000000e+05
-2.793010000000000000e+05
-2.730830000000000000e+05
-2.763460000000000000e+05
-2.834380000000000000e+05
-2.850790000000000000e+05
-2.794230000000000000e+05
-2.730140000000000000e+05
-2.759980000000000000e+05
-2.829810000000000000e+05
-2.846270000000000000e+05
-2.791550000000000000e+05
-2.729500000000000000e+05
-2.759250000000000000e+05
-2.827680000000000000e+05
-2.844240000000000000e+05
-2.793820000000000000e+05
-2.730350000000000000e+05
-2.757310000000000000e+05
-2.827470000000000000e+05
-2.845110000000000000e+05
-2.792720000000000000e+05
-2.728250000000000000e+05
-2.755140000000000000e+05
-2.825570000000000000e+05
-2.843820000000000000e+05
-2.791370000000000000e+05
-2.729510000000000000e+05
-2.754060000000000000e+05
-2.823820000000000000e+05
-2.842760000000000000e+05
-2.791310000000000000e+05
-2.728160000000000000e+05
-2.751440000000000000e+05
-2.821540000000000000e+05
-2.843220000000000000e+05
-2.792940000000000000e+05
-2.726890000000000000e+05
-2.748950000000000000e+05
-2.823420000000000000e+05
-2.848620000000000000e+05
-2.800340000000000000e+05
-2.731210000000000000e+05
-2.750390000000000000e+05
-2.824290000000000000e+05
-2.845210000000000000e+05
-2.787770000000000000e+05
-2.717390000000000000e+05
-2.737140000000000000e+05
-2.808770000000000000e+05
-2.836420000000000000e+05
-2.791350000000000000e+05
-2.726310000000000000e+05
-2.743770000000000000e+05
-2.815600000000000000e+05
-2.842570000000000000e+05
-2.795950000000000000e+05
-2.727790000000000000e+05
-2.742110000000000000e+05
-2.812890000000000000e+05
-2.840100000000000000e+05
-2.794610000000000000e+05
-2.725980000000000000e+05
-2.739490000000000000e+05
-2.812200000000000000e+05
-2.838720000000000000e+05
-2.795130000000000000e+05
-2.725890000000000000e+05
-2.736470000000000000e+05
-2.809190000000000000e+05
-2.838630000000000000e+05
-2.794230000000000000e+05
-2.726350000000000000e+05
-2.734560000000000000e+05
-2.804970000000000000e+05
-2.837890000000000000e+05
-2.798460000000000000e+05
-2.726470000000000000e+05
-2.734450000000000000e+05
-2.806010000000000000e+05
-2.837030000000000000e+05
-2.795920000000000000e+05
-2.726540000000000000e+05
-2.732770000000000000e+05
-2.800910000000000000e+05
-2.833570000000000000e+05
-2.796020000000000000e+05
-2.725980000000000000e+05
-2.730240000000000000e+05
-2.801220000000000000e+05
-2.834360000000000000e+05
-2.795830000000000000e+05
-2.727710000000000000e+05
-2.729370000000000000e+05
-2.799320000000000000e+05
-2.834140000000000000e+05
-2.795590000000000000e+05
-2.725940000000000000e+05
-2.726100000000000000e+05
-2.797160000000000000e+05
-2.833230000000000000e+05
-2.795470000000000000e+05
-2.726660000000000000e+05
-2.727590000000000000e+05
-2.795460000000000000e+05
-2.831390000000000000e+05
-2.796770000000000000e+05
-2.725260000000000000e+05
-2.725060000000000000e+05
-2.794160000000000000e+05
-2.833860000000000000e+05
-2.798410000000000000e+05
-2.724520000000000000e+05
-2.721630000000000000e+05
-2.792780000000000000e+05
-2.832270000000000000e+05
-2.797470000000000000e+05
-2.725020000000000000e+05
-2.720310000000000000e+05
-2.790020000000000000e+05
-2.829690000000000000e+05
-2.797940000000000000e+05
-2.726130000000000000e+05
-2.719080000000000000e+05
-2.789780000000000000e+05
-2.830670000000000000e+05
-2.798750000000000000e+05
-2.727200000000000000e+05
-2.718570000000000000e+05
-2.787070000000000000e+05
-2.827180000000000000e+05
-2.797830000000000000e+05
-2.726470000000000000e+05
-2.717440000000000000e+05
-2.783610000000000000e+05
-2.826370000000000000e+05
-2.799320000000000000e+05
-2.727710000000000000e+05
-2.714510000000000000e+05
-2.781790000000000000e+05
-2.827130000000000000e+05
-2.799470000000000000e+05
-2.728960000000000000e+05
-2.714470000000000000e+05
-2.779170000000000000e+05
-2.826540000000000000e+05
-2.799140000000000000e+05
-2.727310000000000000e+05
-2.711100000000000000e+05
-2.777110000000000000e+05
-2.825190000000000000e+05
-2.801090000000000000e+05
-2.731950000000000000e+05
-2.711040000000000000e+05
-2.775090000000000000e+05
-2.824650000000000000e+05
-2.798330000000000000e+05
-2.727360000000000000e+05
-2.709510000000000000e+05
-2.773640000000000000e+05
-2.821750000000000000e+05
-2.797860000000000000e+05
-2.727830000000000000e+05
-2.708050000000000000e+05
-2.773710000000000000e+05
-2.823070000000000000e+05
-2.799670000000000000e+05
-2.728070000000000000e+05
-2.706710000000000000e+05
-2.772050000000000000e+05
-2.822640000000000000e+05
-2.800860000000000000e+05
-2.729260000000000000e+05
-2.704660000000000000e+05
-2.768240000000000000e+05
-2.821360000000000000e+05
-2.801610000000000000e+05
-2.728660000000000000e+05
-2.702740000000000000e+05
-2.767840000000000000e+05
-2.820150000000000000e+05
-2.799240000000000000e+05
-2.730210000000000000e+05
-2.704050000000000000e+05
-2.764990000000000000e+05
-2.818280000000000000e+05
-2.799890000000000000e+05
-2.730740000000000000e+05
-2.703000000000000000e+05
-2.762790000000000000e+05
-2.816420000000000000e+05
-2.799020000000000000e+05
-2.729990000000000000e+05
-2.700490000000000000e+05
-2.762440000000000000e+05
-2.815060000000000000e+05
-2.800960000000000000e+05
-2.731870000000000000e+05
-2.698620000000000000e+05
-2.759500000000000000e+05
-2.813550000000000000e+05
-2.798920000000000000e+05
-2.729190000000000000e+05
-2.697420000000000000e+05
-2.756390000000000000e+05
-2.813900000000000000e+05
-2.802310000000000000e+05
-2.735170000000000000e+05
-2.703670000000000000e+05
-2.762240000000000000e+05
-2.819110000000000000e+05
-2.808820000000000000e+05
-2.734970000000000000e+05
-2.692590000000000000e+05
-2.746020000000000000e+05
-2.803120000000000000e+05
-2.792660000000000000e+05
-2.725510000000000000e+05
-2.690660000000000000e+05
-2.751850000000000000e+05
-2.810860000000000000e+05
-2.800590000000000000e+05
-2.733200000000000000e+05
-2.694480000000000000e+05
-2.750080000000000000e+05
-2.809340000000000000e+05
-2.801460000000000000e+05
-2.734570000000000000e+05
-2.694160000000000000e+05
-2.748520000000000000e+05
-2.807980000000000000e+05
-2.800020000000000000e+05
-2.733020000000000000e+05
-2.694560000000000000e+05
-2.748770000000000000e+05
-2.808280000000000000e+05
-2.799520000000000000e+05
-2.734020000000000000e+05
-2.692390000000000000e+05
-2.747040000000000000e+05
-2.806190000000000000e+05
-2.800160000000000000e+05
-2.735140000000000000e+05
-2.691520000000000000e+05
-2.743400000000000000e+05
-2.805490000000000000e+05
-2.800670000000000000e+05
-2.736600000000000000e+05
-2.690780000000000000e+05
-2.739660000000000000e+05
-2.802490000000000000e+05
-2.801240000000000000e+05
-2.736340000000000000e+05
-2.688710000000000000e+05
-2.737190000000000000e+05
-2.801110000000000000e+05
-2.800570000000000000e+05
-2.737060000000000000e+05
-2.688160000000000000e+05
-2.737190000000000000e+05
-2.802610000000000000e+05
-2.800760000000000000e+05
-2.736090000000000000e+05
-2.688000000000000000e+05
-2.734820000000000000e+05
-2.799710000000000000e+05
-2.798930000000000000e+05
-2.737130000000000000e+05
-2.687120000000000000e+05
-2.732790000000000000e+05
-2.796200000000000000e+05
-2.796890000000000000e+05
-2.734560000000000000e+05
-2.686090000000000000e+05
-2.731740000000000000e+05
-2.798040000000000000e+05
-2.800410000000000000e+05
-2.734560000000000000e+05
-2.671590000000000000e+05
-2.702560000000000000e+05
-2.772090000000000000e+05
-2.787120000000000000e+05
-2.729170000000000000e+05
-2.651120000000000000e+05
-2.637640000000000000e+05
-2.686080000000000000e+05
-2.754200000000000000e+05
-2.712810000000000000e+05
-2.641990000000000000e+05
-2.621690000000000000e+05
-2.636960000000000000e+05
-2.676320000000000000e+05
-2.655490000000000000e+05
-2.607570000000000000e+05
-2.588730000000000000e+05
-2.627510000000000000e+05
-2.627060000000000000e+05
-2.570830000000000000e+05
-2.608950000000000000e+05
-2.730710000000000000e+05
-2.758290000000000000e+05
-2.720770000000000000e+05
-2.682010000000000000e+05
-2.659020000000000000e+05
-2.656870000000000000e+05
-2.601970000000000000e+05
-2.617620000000000000e+05
-2.611240000000000000e+05
-2.521800000000000000e+05
-2.555370000000000000e+05
-2.641760000000000000e+05
-2.686870000000000000e+05
-2.626010000000000000e+05
-2.609980000000000000e+05
-2.634590000000000000e+05
-2.638770000000000000e+05
-2.604030000000000000e+05
-2.585930000000000000e+05
-2.476760000000000000e+05
-2.507420000000000000e+05
-2.630170000000000000e+05
-2.637120000000000000e+05
-2.473960000000000000e+05
-2.399700000000000000e+05
-2.581230000000000000e+05
-2.656760000000000000e+05
-2.601060000000000000e+05
-2.425170000000000000e+05
-2.373640000000000000e+05
-2.511590000000000000e+05
-2.544080000000000000e+05
-2.526440000000000000e+05
-2.530870000000000000e+05
-2.414910000000000000e+05
-2.521460000000000000e+05
-2.718390000000000000e+05
-2.610010000000000000e+05
-2.394830000000000000e+05
-2.325460000000000000e+05
-2.501590000000000000e+05
-2.595310000000000000e+05
-2.518610000000000000e+05
-2.471510000000000000e+05
-2.386310000000000000e+05
-2.413000000000000000e+05
-2.589990000000000000e+05
-2.645620000000000000e+05
-2.432790000000000000e+05
-2.417330000000000000e+05
-2.530870000000000000e+05
-2.533620000000000000e+05
-2.454460000000000000e+05
-2.408770000000000000e+05
-2.423960000000000000e+05
-2.380140000000000000e+05
-2.540290000000000000e+05
-2.587960000000000000e+05
-2.442660000000000000e+05
-2.391390000000000000e+05
-2.410140000000000000e+05
-2.504610000000000000e+05
-2.532680000000000000e+05
-2.438440000000000000e+05
-2.370770000000000000e+05
-2.462250000000000000e+05
-2.617440000000000000e+05
-2.475980000000000000e+05
-2.364630000000000000e+05
-2.351620000000000000e+05
-2.377340000000000000e+05
-2.494360000000000000e+05
-2.586540000000000000e+05
-2.503270000000000000e+05
-2.409970000000000000e+05
-2.330630000000000000e+05
-2.475750000000000000e+05
-2.616740000000000000e+05
-2.553160000000000000e+05
-2.417170000000000000e+05
-2.401730000000000000e+05
-2.265850000000000000e+05
-2.388440000000000000e+05
-2.491280000000000000e+05
-2.434060000000000000e+05
-2.482880000000000000e+05
-2.485470000000000000e+05
-2.433500000000000000e+05
-2.409390000000000000e+05
-2.360810000000000000e+05
-2.375810000000000000e+05
-2.459430000000000000e+05
-2.519720000000000000e+05
-2.514080000000000000e+05
-2.429320000000000000e+05
-2.251680000000000000e+05
-2.460740000000000000e+05
-2.649390000000000000e+05
-2.484790000000000000e+05
-2.301060000000000000e+05
-2.335380000000000000e+05
-2.417670000000000000e+05
-2.430670000000000000e+05
-2.410570000000000000e+05
-2.495070000000000000e+05
-2.378010000000000000e+05
-2.414990000000000000e+05
-2.523620000000000000e+05
-2.470360000000000000e+05
-2.316190000000000000e+05
-2.370660000000000000e+05
-2.527220000000000000e+05
-2.579300000000000000e+05
-2.462410000000000000e+05
-2.296060000000000000e+05
-2.245220000000000000e+05
-2.476400000000000000e+05
-2.482770000000000000e+05
-2.400790000000000000e+05
-2.379360000000000000e+05
-2.384180000000000000e+05
-2.469940000000000000e+05
-2.512490000000000000e+05
-2.511960000000000000e+05
-2.411270000000000000e+05
-2.316630000000000000e+05
-2.472660000000000000e+05
-2.456520000000000000e+05
-2.453720000000000000e+05
-2.342890000000000000e+05
-2.399190000000000000e+05
-2.453640000000000000e+05
-2.455010000000000000e+05
-2.462790000000000000e+05
-2.445630000000000000e+05
-2.432660000000000000e+05
-2.334600000000000000e+05
-2.504550000000000000e+05
-2.514450000000000000e+05
-2.392470000000000000e+05
-2.390990000000000000e+05
-2.550070000000000000e+05
-2.531810000000000000e+05
-2.398040000000000000e+05
-2.269460000000000000e+05
-2.239450000000000000e+05
-2.523770000000000000e+05
-2.515790000000000000e+05
-2.387440000000000000e+05
-2.310100000000000000e+05
-2.388320000000000000e+05
-2.505960000000000000e+05
-2.497220000000000000e+05
-2.495770000000000000e+05
-2.471340000000000000e+05
-2.356980000000000000e+05
-2.347890000000000000e+05
-2.486700000000000000e+05
-2.438940000000000000e+05
-2.414170000000000000e+05
-2.376830000000000000e+05
-2.392380000000000000e+05
-2.500800000000000000e+05
-2.382970000000000000e+05
-2.347920000000000000e+05
-2.434220000000000000e+05
-2.544010000000000000e+05
-2.486760000000000000e+05
-2.418740000000000000e+05
-2.336750000000000000e+05
-2.339760000000000000e+05
-2.476240000000000000e+05
-2.515910000000000000e+05
-2.453490000000000000e+05
-2.453390000000000000e+05
-2.391290000000000000e+05
-2.373910000000000000e+05
-2.371490000000000000e+05
-2.376770000000000000e+05
-2.465370000000000000e+05
-2.463510000000000000e+05
-2.401860000000000000e+05
-2.473250000000000000e+05
-2.607440000000000000e+05
-2.455800000000000000e+05
-2.295960000000000000e+05
-2.328220000000000000e+05
-2.485120000000000000e+05
-2.515840000000000000e+05
-2.261700000000000000e+05
-2.281240000000000000e+05
-2.581870000000000000e+05
-2.538450000000000000e+05
-2.427000000000000000e+05
-2.406620000000000000e+05
-2.454490000000000000e+05
-2.376710000000000000e+05
-2.510330000000000000e+05
-2.474890000000000000e+05
-2.409420000000000000e+05
-2.418320000000000000e+05
-2.412070000000000000e+05
-2.502200000000000000e+05
-2.539170000000000000e+05
-2.406240000000000000e+05
-2.300550000000000000e+05
-2.464500000000000000e+05
-2.595780000000000000e+05
-2.479320000000000000e+05
-2.441080000000000000e+05
-2.414940000000000000e+05
-2.439320000000000000e+05
-2.439760000000000000e+05
-2.515130000000000000e+05
-2.500510000000000000e+05
-2.514970000000000000e+05
-2.544440000000000000e+05
-2.577240000000000000e+05
-2.532690000000000000e+05
-2.404360000000000000e+05
-2.420170000000000000e+05
-2.544060000000000000e+05
-2.537920000000000000e+05
-2.522940000000000000e+05
-2.475140000000000000e+05
-2.467940000000000000e+05
-2.545960000000000000e+05
-2.564290000000000000e+05
-2.551070000000000000e+05
-2.489220000000000000e+05
-2.456170000000000000e+05
-2.530190000000000000e+05
-2.558360000000000000e+05
-2.524470000000000000e+05
-2.485630000000000000e+05
-2.476340000000000000e+05
-2.539730000000000000e+05
-2.603340000000000000e+05
-2.588110000000000000e+05
-2.535670000000000000e+05
-2.505920000000000000e+05
-2.535910000000000000e+05
-2.599720000000000000e+05
-2.640270000000000000e+05
-2.573970000000000000e+05
-2.508920000000000000e+05
-2.567320000000000000e+05
-2.631560000000000000e+05
-2.627990000000000000e+05
-2.553280000000000000e+05
-2.514650000000000000e+05
-2.592000000000000000e+05
-2.653040000000000000e+05
-2.643900000000000000e+05
-2.579590000000000000e+05
-2.540190000000000000e+05
-2.620160000000000000e+05
-2.697870000000000000e+05
-2.696850000000000000e+05
-2.611190000000000000e+05
-2.571040000000000000e+05
-2.634310000000000000e+05
-2.698850000000000000e+05
-2.694290000000000000e+05
-2.633320000000000000e+05
-2.590980000000000000e+05
-2.644000000000000000e+05
-2.711910000000000000e+05
-2.711490000000000000e+05
-2.649120000000000000e+05
-2.603460000000000000e+05
-2.654760000000000000e+05
-2.723560000000000000e+05
-2.722710000000000000e+05
-2.659670000000000000e+05
-2.611870000000000000e+05
-2.662930000000000000e+05
-2.728400000000000000e+05
-2.730690000000000000e+05
-2.671550000000000000e+05
-2.622320000000000000e+05
-2.670220000000000000e+05
-2.739360000000000000e+05
-2.740000000000000000e+05
-2.674490000000000000e+05
-2.621840000000000000e+05
-2.671320000000000000e+05
-2.742950000000000000e+05
-2.744160000000000000e+05
-2.678420000000000000e+05
-2.626530000000000000e+05
-2.676020000000000000e+05
-2.744480000000000000e+05
-2.746160000000000000e+05
-2.682930000000000000e+05
-2.629330000000000000e+05
-2.673660000000000000e+05
-2.745070000000000000e+05
-2.751070000000000000e+05
-2.688140000000000000e+05
-2.632080000000000000e+05
-2.677360000000000000e+05
-2.749880000000000000e+05
-2.753480000000000000e+05
-2.693520000000000000e+05
-2.637970000000000000e+05
-2.679240000000000000e+05
-2.748830000000000000e+05
-2.756640000000000000e+05
-2.694470000000000000e+05
-2.639210000000000000e+05
-2.682710000000000000e+05
-2.751630000000000000e+05
-2.762290000000000000e+05
-2.704990000000000000e+05
-2.642340000000000000e+05
-2.682040000000000000e+05
-2.753440000000000000e+05
-2.765810000000000000e+05
-2.705940000000000000e+05
-2.647440000000000000e+05
-2.687880000000000000e+05
-2.757580000000000000e+05
-2.767460000000000000e+05
-2.707840000000000000e+05
-2.646690000000000000e+05
-2.686040000000000000e+05
-2.755350000000000000e+05
-2.767930000000000000e+05
-2.710300000000000000e+05
-2.648970000000000000e+05
-2.685360000000000000e+05
-2.755730000000000000e+05
-2.769520000000000000e+05
-2.715090000000000000e+05
-2.655210000000000000e+05
-2.690200000000000000e+05
-2.758970000000000000e+05
-2.774640000000000000e+05
-2.717580000000000000e+05
-2.654700000000000000e+05
-2.692790000000000000e+05
-2.762810000000000000e+05
-2.771040000000000000e+05
-2.716750000000000000e+05
-2.653320000000000000e+05
-2.686740000000000000e+05
-2.759950000000000000e+05
-2.776890000000000000e+05
-2.720360000000000000e+05
-2.656220000000000000e+05
-2.687840000000000000e+05
-2.760330000000000000e+05
-2.778880000000000000e+05
-2.723500000000000000e+05
-2.657090000000000000e+05
-2.687790000000000000e+05
-2.759790000000000000e+05
-2.778440000000000000e+05
-2.726670000000000000e+05
-2.662820000000000000e+05
-2.689090000000000000e+05
-2.755270000000000000e+05
-2.776870000000000000e+05
-2.728600000000000000e+05
-2.663190000000000000e+05
-2.687350000000000000e+05
-2.759940000000000000e+05
-2.781590000000000000e+05
-2.730440000000000000e+05
-2.665050000000000000e+05
-2.688670000000000000e+05
-2.761350000000000000e+05
-2.782720000000000000e+05
-2.731630000000000000e+05
-2.666390000000000000e+05
-2.689030000000000000e+05
-2.759960000000000000e+05
-2.786060000000000000e+05
-2.738360000000000000e+05
-2.668580000000000000e+05
-2.688720000000000000e+05
-2.761210000000000000e+05
-2.784740000000000000e+05
-2.737940000000000000e+05
-2.670240000000000000e+05
-2.689680000000000000e+05
-2.762540000000000000e+05
-2.787660000000000000e+05
-2.741810000000000000e+05
-2.672340000000000000e+05
-2.689350000000000000e+05
-2.762630000000000000e+05
-2.788660000000000000e+05
-2.743220000000000000e+05
-2.675120000000000000e+05
-2.691210000000000000e+05
-2.763250000000000000e+05
-2.792170000000000000e+05
-2.747990000000000000e+05
-2.679020000000000000e+05
-2.689410000000000000e+05
-2.761820000000000000e+05
-2.794360000000000000e+05
-2.749640000000000000e+05
-2.678450000000000000e+05
-2.692500000000000000e+05
-2.767710000000000000e+05
-2.799990000000000000e+05
-2.759250000000000000e+05
-2.688290000000000000e+05
-2.697390000000000000e+05
-2.768170000000000000e+05
-2.796000000000000000e+05
-2.749240000000000000e+05
-2.676270000000000000e+05
-2.686970000000000000e+05
-2.760630000000000000e+05
-2.796340000000000000e+05
-2.759420000000000000e+05
-2.688230000000000000e+05
-2.692140000000000000e+05
-2.765560000000000000e+05
-2.800610000000000000e+05
-2.763360000000000000e+05
-2.691270000000000000e+05
-2.692750000000000000e+05
-2.765870000000000000e+05
-2.801990000000000000e+05
-2.763940000000000000e+05
-2.692990000000000000e+05
-2.696860000000000000e+05
-2.768710000000000000e+05
-2.804470000000000000e+05
-2.767170000000000000e+05
-2.694770000000000000e+05
-2.696750000000000000e+05
-2.768570000000000000e+05
-2.805670000000000000e+05
-2.770620000000000000e+05
-2.698390000000000000e+05
-2.697570000000000000e+05
-2.769710000000000000e+05
-2.807340000000000000e+05
-2.771080000000000000e+05
-2.696640000000000000e+05
-2.697880000000000000e+05
-2.771420000000000000e+05
-2.811770000000000000e+05
-2.776330000000000000e+05
-2.702160000000000000e+05
-2.699010000000000000e+05
-2.772000000000000000e+05
-2.812110000000000000e+05
-2.779460000000000000e+05
-2.707280000000000000e+05
-2.699310000000000000e+05
-2.770030000000000000e+05
-2.813960000000000000e+05
-2.782110000000000000e+05
-2.708820000000000000e+05
-2.703270000000000000e+05
-2.775090000000000000e+05
-2.817380000000000000e+05
-2.786510000000000000e+05
-2.712340000000000000e+05
-2.703410000000000000e+05
-2.774370000000000000e+05
-2.817660000000000000e+05
-2.787890000000000000e+05
-2.716160000000000000e+05
-2.706350000000000000e+05
-2.777980000000000000e+05
-2.822230000000000000e+05
-2.793210000000000000e+05
-2.720860000000000000e+05
-2.707570000000000000e+05
-2.778180000000000000e+05
-2.823940000000000000e+05
-2.794540000000000000e+05
-2.723480000000000000e+05
-2.709900000000000000e+05
-2.781350000000000000e+05
-2.827830000000000000e+05
-2.799240000000000000e+05
-2.726410000000000000e+05
-2.712980000000000000e+05
-2.783120000000000000e+05
-2.828020000000000000e+05
-2.802910000000000000e+05
-2.731860000000000000e+05
-2.713420000000000000e+05
-2.781690000000000000e+05
-2.831680000000000000e+05
-2.806680000000000000e+05
-2.734570000000000000e+05
-2.716970000000000000e+05
-2.784710000000000000e+05
-2.833460000000000000e+05
-2.809720000000000000e+05
-2.739250000000000000e+05
-2.720690000000000000e+05
-2.789740000000000000e+05
-2.836920000000000000e+05
-2.814740000000000000e+05
-2.744920000000000000e+05
-2.722870000000000000e+05
-2.788310000000000000e+05
-2.838770000000000000e+05
-2.817440000000000000e+05
-2.748060000000000000e+05
-2.724820000000000000e+05
-2.792070000000000000e+05
-2.844030000000000000e+05
-2.821430000000000000e+05
-2.751190000000000000e+05
-2.727890000000000000e+05
-2.793820000000000000e+05
-2.845910000000000000e+05
-2.825920000000000000e+05
-2.757570000000000000e+05
-2.732290000000000000e+05
-2.793620000000000000e+05
-2.844750000000000000e+05
-2.825590000000000000e+05
-2.758130000000000000e+05
-2.733060000000000000e+05
-2.798500000000000000e+05
-2.852470000000000000e+05
-2.833540000000000000e+05
-2.762740000000000000e+05
-2.735520000000000000e+05
-2.799530000000000000e+05
-2.853740000000000000e+05
-2.838870000000000000e+05
-2.769690000000000000e+05
-2.738580000000000000e+05
-2.800780000000000000e+05
-2.858110000000000000e+05
-2.843810000000000000e+05
-2.774260000000000000e+05
-2.742990000000000000e+05
-2.803550000000000000e+05
-2.860890000000000000e+05
-2.847760000000000000e+05
-2.778480000000000000e+05
-2.748220000000000000e+05
-2.810760000000000000e+05
-2.864260000000000000e+05
-2.850350000000000000e+05
-2.783790000000000000e+05
-2.748220000000000000e+05
-2.810110000000000000e+05
-2.868270000000000000e+05
-2.855130000000000000e+05
-2.789220000000000000e+05
-2.753510000000000000e+05
-2.812960000000000000e+05
-2.870760000000000000e+05
-2.861840000000000000e+05
-2.795290000000000000e+05
-2.758010000000000000e+05
-2.816960000000000000e+05
-2.875690000000000000e+05
-2.866570000000000000e+05
-2.801520000000000000e+05
-2.760840000000000000e+05
-2.817330000000000000e+05
-2.877170000000000000e+05
-2.870540000000000000e+05
-2.804840000000000000e+05
-2.768840000000000000e+05
-2.827320000000000000e+05
-2.888890000000000000e+05
-2.883670000000000000e+05
-2.817000000000000000e+05
-2.771800000000000000e+05
-2.822760000000000000e+05
-2.879200000000000000e+05
-2.870490000000000000e+05
-2.806490000000000000e+05
-2.765790000000000000e+05
-2.822050000000000000e+05
-2.884220000000000000e+05
-2.880710000000000000e+05
-2.817770000000000000e+05
-2.774470000000000000e+05
-2.827940000000000000e+05
-2.892520000000000000e+05
-2.888510000000000000e+05
-2.822180000000000000e+05
-2.774660000000000000e+05
-2.828060000000000000e+05
-2.892580000000000000e+05
-2.890020000000000000e+05
-2.825370000000000000e+05
-2.778910000000000000e+05
-2.831070000000000000e+05
-2.895190000000000000e+05
-2.894640000000000000e+05
-2.830310000000000000e+05
-2.782710000000000000e+05
-2.834410000000000000e+05
-2.899480000000000000e+05
-2.899570000000000000e+05
-2.835600000000000000e+05
-2.787450000000000000e+05
-2.838060000000000000e+05
-2.902860000000000000e+05
-2.902860000000000000e+05
-2.839040000000000000e+05
-2.790800000000000000e+05
-2.840510000000000000e+05
-2.904010000000000000e+05
-2.901250000000000000e+05
-2.841640000000000000e+05
-2.794530000000000000e+05
-2.842590000000000000e+05
-2.907780000000000000e+05
-2.910410000000000000e+05
-2.846020000000000000e+05
-2.794760000000000000e+05
-2.843870000000000000e+05
-2.909690000000000000e+05
-2.912860000000000000e+05
-2.851040000000000000e+05
-2.798340000000000000e+05
-2.845510000000000000e+05
-2.913520000000000000e+05
-2.917410000000000000e+05
-2.855540000000000000e+05
-2.801420000000000000e+05
-2.844590000000000000e+05
-2.913340000000000000e+05
-2.919570000000000000e+05
-2.859690000000000000e+05
-2.804360000000000000e+05
-2.848940000000000000e+05
-2.918520000000000000e+05
-2.927330000000000000e+05
-2.865470000000000000e+05
-2.804270000000000000e+05
-2.848010000000000000e+05
-2.920220000000000000e+05
-2.930150000000000000e+05
-2.869430000000000000e+05
-2.811880000000000000e+05
-2.853600000000000000e+05
-2.923210000000000000e+05
-2.932090000000000000e+05
-2.872960000000000000e+05
-2.814110000000000000e+05
-2.852080000000000000e+05
-2.924530000000000000e+05
-2.935120000000000000e+05
-2.875140000000000000e+05
-2.816440000000000000e+05
-2.856070000000000000e+05
-2.927120000000000000e+05
-2.939690000000000000e+05
-2.882060000000000000e+05
-2.822100000000000000e+05
-2.859380000000000000e+05
-2.931760000000000000e+05
-2.943990000000000000e+05
-2.885960000000000000e+05
-2.823860000000000000e+05
-2.860290000000000000e+05
-2.932650000000000000e+05
-2.947340000000000000e+05
-2.891310000000000000e+05
-2.830190000000000000e+05
-2.862710000000000000e+05
-2.933260000000000000e+05
-2.948010000000000000e+05
-2.893700000000000000e+05
-2.829910000000000000e+05
-2.863520000000000000e+05
-2.936940000000000000e+05
-2.953050000000000000e+05
-2.897960000000000000e+05
-2.832930000000000000e+05
-2.867860000000000000e+05
-2.941070000000000000e+05
-2.957740000000000000e+05
-2.901730000000000000e+05
-2.835370000000000000e+05
-2.866220000000000000e+05
-2.940540000000000000e+05
-2.961440000000000000e+05
-2.908320000000000000e+05
-2.838720000000000000e+05
-2.867860000000000000e+05
-2.943700000000000000e+05
-2.963820000000000000e+05
-2.909740000000000000e+05
-2.841480000000000000e+05
-2.872110000000000000e+05
-2.946090000000000000e+05
-2.965520000000000000e+05
-2.912560000000000000e+05
-2.841810000000000000e+05
-2.868610000000000000e+05
-2.947210000000000000e+05
-2.970200000000000000e+05
-2.916750000000000000e+05
-2.845750000000000000e+05
-2.871520000000000000e+05
-2.950290000000000000e+05
-2.971720000000000000e+05
-2.921280000000000000e+05
-2.844710000000000000e+05
-2.866110000000000000e+05
-2.949770000000000000e+05
-2.974590000000000000e+05
-2.922110000000000000e+05
-2.847920000000000000e+05
-2.867180000000000000e+05
-2.947320000000000000e+05
-2.975840000000000000e+05
-2.924440000000000000e+05
-2.852640000000000000e+05
-2.872230000000000000e+05
-2.949600000000000000e+05
-2.976770000000000000e+05
-2.927300000000000000e+05
-2.853800000000000000e+05
-2.869480000000000000e+05
-2.948500000000000000e+05
-2.978770000000000000e+05
-2.929240000000000000e+05
-2.854070000000000000e+05
-2.871060000000000000e+05
-2.951150000000000000e+05
-2.981890000000000000e+05
-2.934660000000000000e+05
-2.860540000000000000e+05
-2.877060000000000000e+05
-2.957940000000000000e+05
-2.989820000000000000e+05
-2.938730000000000000e+05
-2.857380000000000000e+05
-2.863220000000000000e+05
-2.940410000000000000e+05
-2.973940000000000000e+05
-2.931760000000000000e+05
-2.857340000000000000e+05
-2.868330000000000000e+05
-2.950010000000000000e+05
-2.985920000000000000e+05
-2.939070000000000000e+05
-2.860680000000000000e+05
-2.869460000000000000e+05
-2.950060000000000000e+05
-2.985560000000000000e+05
-2.940230000000000000e+05
-2.862570000000000000e+05
-2.871380000000000000e+05
-2.950020000000000000e+05
-2.987210000000000000e+05
-2.943370000000000000e+05
-2.864060000000000000e+05
-2.871010000000000000e+05
-2.951190000000000000e+05
-2.989140000000000000e+05
-2.944430000000000000e+05
-2.867520000000000000e+05
-2.871410000000000000e+05
-2.947840000000000000e+05
-2.986900000000000000e+05
-2.945840000000000000e+05
-2.867460000000000000e+05
-2.869570000000000000e+05
-2.949500000000000000e+05
-2.989580000000000000e+05
-2.947800000000000000e+05
-2.869870000000000000e+05
-2.870060000000000000e+05
-2.948620000000000000e+05
-2.991040000000000000e+05
-2.950500000000000000e+05
-2.869840000000000000e+05
-2.869310000000000000e+05
-2.946080000000000000e+05
-2.987980000000000000e+05
-2.950840000000000000e+05
-2.874390000000000000e+05
-2.868670000000000000e+05
-2.944870000000000000e+05
-2.988140000000000000e+05
-2.952190000000000000e+05
-2.875660000000000000e+05
-2.869410000000000000e+05
-2.945390000000000000e+05
-2.988820000000000000e+05
-2.952940000000000000e+05
-2.875360000000000000e+05
-2.870120000000000000e+05
-2.948950000000000000e+05
-2.990970000000000000e+05
-2.954210000000000000e+05
-2.876190000000000000e+05
-2.867520000000000000e+05
-2.942960000000000000e+05
-2.988120000000000000e+05
-2.956670000000000000e+05
-2.879130000000000000e+05
-2.868670000000000000e+05
-2.943290000000000000e+05
-2.988970000000000000e+05
-2.956250000000000000e+05
-2.879970000000000000e+05
-2.866240000000000000e+05
-2.942180000000000000e+05
-2.990590000000000000e+05
-2.958890000000000000e+05
-2.881160000000000000e+05
-2.867390000000000000e+05
-2.940610000000000000e+05
-2.988650000000000000e+05
-2.958860000000000000e+05
-2.881900000000000000e+05
-2.867420000000000000e+05
-2.941310000000000000e+05
-2.989370000000000000e+05
-2.959440000000000000e+05
-2.883070000000000000e+05
-2.867440000000000000e+05
-2.939890000000000000e+05
-2.989960000000000000e+05
-2.961790000000000000e+05
-2.882310000000000000e+05
-2.861990000000000000e+05
-2.936160000000000000e+05
-2.988440000000000000e+05
-2.961950000000000000e+05
-2.884560000000000000e+05
-2.863210000000000000e+05
-2.934380000000000000e+05
-2.988710000000000000e+05
-2.962490000000000000e+05
-2.884390000000000000e+05
-2.859470000000000000e+05
-2.931670000000000000e+05
-2.987850000000000000e+05
-2.963520000000000000e+05
-2.885460000000000000e+05
-2.859070000000000000e+05
-2.931760000000000000e+05
-2.986810000000000000e+05
-2.962010000000000000e+05
-2.884160000000000000e+05
-2.858160000000000000e+05
-2.929960000000000000e+05
-2.985590000000000000e+05
-2.964480000000000000e+05
-2.884670000000000000e+05
-2.855510000000000000e+05
-2.928230000000000000e+05
-2.987420000000000000e+05
-2.966070000000000000e+05
-2.885220000000000000e+05
-2.855520000000000000e+05
-2.927690000000000000e+05
-2.986160000000000000e+05
-2.965460000000000000e+05
-2.886640000000000000e+05
-2.853280000000000000e+05
-2.923920000000000000e+05
-2.984470000000000000e+05
-2.964840000000000000e+05
-2.888710000000000000e+05
-2.855240000000000000e+05
-2.920770000000000000e+05
-2.980630000000000000e+05
-2.963420000000000000e+05
-2.886910000000000000e+05
-2.851770000000000000e+05
-2.920380000000000000e+05
-2.982620000000000000e+05
-2.964250000000000000e+05
-2.887080000000000000e+05
-2.851590000000000000e+05
-2.917180000000000000e+05
-2.977790000000000000e+05
-2.963990000000000000e+05
-2.888890000000000000e+05
-2.850820000000000000e+05
-2.915910000000000000e+05
-2.978170000000000000e+05
-2.964710000000000000e+05
-2.889260000000000000e+05
-2.849580000000000000e+05
-2.913260000000000000e+05
-2.977670000000000000e+05
-2.967230000000000000e+05
-2.893540000000000000e+05
-2.853510000000000000e+05
-2.915320000000000000e+05
-2.979180000000000000e+05
-2.967110000000000000e+05
-2.889120000000000000e+05
-2.840700000000000000e+05
-2.899450000000000000e+05
-2.964140000000000000e+05
-2.955920000000000000e+05
-2.885380000000000000e+05
-2.844040000000000000e+05
-2.903140000000000000e+05
-2.968550000000000000e+05
-2.961810000000000000e+05
-2.889490000000000000e+05
-2.844160000000000000e+05
-2.904890000000000000e+05
-2.971970000000000000e+05
-2.961490000000000000e+05
-2.888080000000000000e+05
-2.841880000000000000e+05
-2.900860000000000000e+05
-2.967270000000000000e+05
-2.960440000000000000e+05
-2.888160000000000000e+05
-2.840790000000000000e+05
-2.901620000000000000e+05
-2.965740000000000000e+05
-2.956940000000000000e+05
-2.887520000000000000e+05
-2.837920000000000000e+05
-2.895230000000000000e+05
-2.963870000000000000e+05
-2.959740000000000000e+05
-2.888020000000000000e+05
-2.837330000000000000e+05
-2.892070000000000000e+05
-2.958580000000000000e+05
-2.958350000000000000e+05
-2.891460000000000000e+05
-2.838750000000000000e+05
-2.891960000000000000e+05
-2.962170000000000000e+05
-2.962040000000000000e+05
-2.888260000000000000e+05
-2.834030000000000000e+05
-2.887820000000000000e+05
-2.960240000000000000e+05
-2.961840000000000000e+05
-2.891370000000000000e+05
-2.834620000000000000e+05
-2.886800000000000000e+05
-2.961460000000000000e+05
-2.963330000000000000e+05
-2.891010000000000000e+05
-2.832910000000000000e+05
-2.885210000000000000e+05
-2.959560000000000000e+05
-2.962840000000000000e+05
-2.892850000000000000e+05
-2.835620000000000000e+05
-2.884490000000000000e+05
-2.956410000000000000e+05
-2.962070000000000000e+05
-2.894740000000000000e+05
-2.833090000000000000e+05
-2.882320000000000000e+05
-2.957190000000000000e+05
-2.962620000000000000e+05
-2.895470000000000000e+05
-2.836990000000000000e+05
-2.884640000000000000e+05
-2.953350000000000000e+05
-2.960040000000000000e+05
-2.894020000000000000e+05
-2.831850000000000000e+05
-2.877420000000000000e+05
-2.953730000000000000e+05
-2.962880000000000000e+05
-2.895610000000000000e+05
-2.830470000000000000e+05
-2.873650000000000000e+05
-2.949780000000000000e+05
-2.959370000000000000e+05
-2.894370000000000000e+05
-2.828120000000000000e+05
-2.873170000000000000e+05
-2.950400000000000000e+05
-2.960420000000000000e+05
-2.894490000000000000e+05
-2.828460000000000000e+05
-2.870170000000000000e+05
-2.948060000000000000e+05
-2.961310000000000000e+05
-2.895710000000000000e+05
-2.827510000000000000e+05
-2.866540000000000000e+05
-2.944210000000000000e+05
-2.957760000000000000e+05
-2.893950000000000000e+05
-2.828720000000000000e+05
-2.867790000000000000e+05
-2.942860000000000000e+05
-2.956830000000000000e+05
-2.894240000000000000e+05
-2.826620000000000000e+05
-2.862040000000000000e+05
-2.940860000000000000e+05
-2.956720000000000000e+05
-2.893960000000000000e+05
-2.825070000000000000e+05
-2.861540000000000000e+05
-2.940160000000000000e+05
-2.956270000000000000e+05
-2.894270000000000000e+05
-2.825750000000000000e+05
-2.857960000000000000e+05
-2.934490000000000000e+05
-2.952810000000000000e+05
-2.896240000000000000e+05
-2.826900000000000000e+05
-2.856780000000000000e+05
-2.932360000000000000e+05
-2.949910000000000000e+05
-2.894210000000000000e+05
-2.824710000000000000e+05
-2.853270000000000000e+05
-2.929820000000000000e+05
-2.950330000000000000e+05
-2.893820000000000000e+05
-2.824020000000000000e+05
-2.851190000000000000e+05
-2.928280000000000000e+05
-2.949430000000000000e+05
-2.893660000000000000e+05
-2.823870000000000000e+05
-2.849820000000000000e+05
-2.926380000000000000e+05
-2.949040000000000000e+05
-2.894810000000000000e+05
-2.822640000000000000e+05
-2.846810000000000000e+05
-2.922970000000000000e+05
-2.946240000000000000e+05
-2.892830000000000000e+05
-2.821090000000000000e+05
-2.843920000000000000e+05
-2.922220000000000000e+05
-2.949340000000000000e+05
-2.895360000000000000e+05
-2.822000000000000000e+05
-2.841990000000000000e+05
-2.920440000000000000e+05
-2.947120000000000000e+05
-2.892620000000000000e+05
-2.819420000000000000e+05
-2.838410000000000000e+05
-2.916520000000000000e+05
-2.947070000000000000e+05
-2.899290000000000000e+05
-2.823540000000000000e+05
-2.840580000000000000e+05
-2.921020000000000000e+05
-2.952130000000000000e+05
-2.901900000000000000e+05
-2.820960000000000000e+05
-2.832850000000000000e+05
-2.906520000000000000e+05
-2.935680000000000000e+05
-2.887840000000000000e+05
-2.812520000000000000e+05
-2.829360000000000000e+05
-2.910550000000000000e+05
-2.942410000000000000e+05
-2.894370000000000000e+05
-2.819270000000000000e+05
-2.830540000000000000e+05
-2.910120000000000000e+05
-2.943720000000000000e+05
-2.896060000000000000e+05
-2.819670000000000000e+05
-2.830680000000000000e+05
-2.908880000000000000e+05
-2.939430000000000000e+05
-2.894470000000000000e+05
-2.819160000000000000e+05
-2.826060000000000000e+05
-2.903820000000000000e+05
-2.940960000000000000e+05
-2.895960000000000000e+05
-2.818590000000000000e+05
-2.824940000000000000e+05
-2.903310000000000000e+05
-2.939840000000000000e+05
-2.894140000000000000e+05
-2.816910000000000000e+05
-2.821500000000000000e+05
-2.901040000000000000e+05
-2.939500000000000000e+05
-2.896020000000000000e+05
-2.816800000000000000e+05
-2.822490000000000000e+05
-2.899720000000000000e+05
-2.936310000000000000e+05
-2.894540000000000000e+05
-2.816590000000000000e+05
-2.820420000000000000e+05
-2.898420000000000000e+05
-2.936140000000000000e+05
-2.895330000000000000e+05
-2.816920000000000000e+05
-2.815870000000000000e+05
-2.893510000000000000e+05
-2.935300000000000000e+05
-2.894820000000000000e+05
-2.817380000000000000e+05
-2.815600000000000000e+05
-2.893670000000000000e+05
-2.932650000000000000e+05
-2.893720000000000000e+05
-2.816870000000000000e+05
-2.814570000000000000e+05
-2.890090000000000000e+05
-2.932490000000000000e+05
-2.894440000000000000e+05
-2.818510000000000000e+05
-2.812690000000000000e+05
-2.887960000000000000e+05
-2.930320000000000000e+05
-2.895020000000000000e+05
-2.817790000000000000e+05
-2.812270000000000000e+05
-2.886470000000000000e+05
-2.929810000000000000e+05
-2.894570000000000000e+05
-2.817870000000000000e+05
-2.809420000000000000e+05
-2.885860000000000000e+05
-2.930990000000000000e+05
-2.898190000000000000e+05
-2.819210000000000000e+05
-2.804230000000000000e+05
-2.879490000000000000e+05
-2.927780000000000000e+05
-2.897110000000000000e+05
-2.818670000000000000e+05
-2.806200000000000000e+05
-2.882190000000000000e+05
-2.928160000000000000e+05
-2.895320000000000000e+05
-2.816120000000000000e+05
-2.803570000000000000e+05
-2.879160000000000000e+05
-2.928120000000000000e+05
-2.895720000000000000e+05
-2.817370000000000000e+05
-2.802200000000000000e+05
-2.877660000000000000e+05
-2.927180000000000000e+05
-2.897020000000000000e+05
-2.819980000000000000e+05
-2.802200000000000000e+05
-2.874640000000000000e+05
-2.923680000000000000e+05
-2.895540000000000000e+05
-2.817010000000000000e+05
-2.798140000000000000e+05
-2.872610000000000000e+05
-2.925170000000000000e+05
-2.896140000000000000e+05
-2.816890000000000000e+05
-2.798130000000000000e+05
-2.869160000000000000e+05
-2.923120000000000000e+05
-2.897030000000000000e+05
-2.817770000000000000e+05
-2.796240000000000000e+05
-2.868420000000000000e+05
-2.924280000000000000e+05
-2.899720000000000000e+05
-2.817270000000000000e+05
-2.793990000000000000e+05
-2.867970000000000000e+05
-2.922960000000000000e+05
-2.896560000000000000e+05
-2.818030000000000000e+05
-2.792510000000000000e+05
-2.864580000000000000e+05
-2.921440000000000000e+05
-2.897190000000000000e+05
-2.816810000000000000e+05
-2.788830000000000000e+05
-2.860870000000000000e+05
-2.921540000000000000e+05
-2.897730000000000000e+05
-2.819180000000000000e+05
-2.790400000000000000e+05
-2.860650000000000000e+05
-2.918270000000000000e+05
-2.895860000000000000e+05
-2.819670000000000000e+05
-2.790070000000000000e+05
-2.855970000000000000e+05
-2.913720000000000000e+05
-2.895600000000000000e+05
-2.818210000000000000e+05
-2.785370000000000000e+05
-2.854610000000000000e+05
-2.913940000000000000e+05
-2.896100000000000000e+05
-2.818600000000000000e+05
-2.784890000000000000e+05
-2.851810000000000000e+05
-2.912220000000000000e+05
-2.895740000000000000e+05
-2.820260000000000000e+05
-2.783710000000000000e+05
-2.847490000000000000e+05
-2.909510000000000000e+05
-2.895590000000000000e+05
-2.822840000000000000e+05
-2.787810000000000000e+05
-2.853300000000000000e+05
-2.916520000000000000e+05
-2.900450000000000000e+05
-2.823740000000000000e+05
-2.782860000000000000e+05
-2.840120000000000000e+05
-2.899290000000000000e+05
-2.886190000000000000e+05
-2.814100000000000000e+05
-2.776850000000000000e+05
-2.841880000000000000e+05
-2.907270000000000000e+05
-2.895160000000000000e+05
-2.821320000000000000e+05
-2.782660000000000000e+05
-2.843710000000000000e+05
-2.906520000000000000e+05
-2.893620000000000000e+05
-2.820440000000000000e+05
-2.778020000000000000e+05
-2.839020000000000000e+05
-2.903400000000000000e+05
-2.894510000000000000e+05
-2.821460000000000000e+05
-2.777870000000000000e+05
-2.837690000000000000e+05
-2.903360000000000000e+05
-2.893760000000000000e+05
-2.821840000000000000e+05
-2.778110000000000000e+05
-2.835420000000000000e+05
-2.899910000000000000e+05
-2.892570000000000000e+05
-2.822530000000000000e+05
-2.778970000000000000e+05
-2.834440000000000000e+05
-2.899310000000000000e+05
-2.892480000000000000e+05
-2.822610000000000000e+05
-2.775340000000000000e+05
-2.830590000000000000e+05
-2.897440000000000000e+05
-2.892310000000000000e+05
-2.822980000000000000e+05
-2.775610000000000000e+05
-2.831270000000000000e+05
-2.897120000000000000e+05
-2.893010000000000000e+05
-2.823050000000000000e+05
-2.775160000000000000e+05
-2.827640000000000000e+05
-2.895340000000000000e+05
-2.894520000000000000e+05
-2.824310000000000000e+05
-2.773490000000000000e+05
-2.823770000000000000e+05
-2.890600000000000000e+05
-2.890130000000000000e+05
-2.825720000000000000e+05
-2.776600000000000000e+05
-2.824710000000000000e+05
-2.890050000000000000e+05
-2.892190000000000000e+05
-2.828290000000000000e+05
-2.775530000000000000e+05
-2.822570000000000000e+05
-2.890770000000000000e+05
-2.893290000000000000e+05
-2.827730000000000000e+05
-2.772840000000000000e+05
-2.821020000000000000e+05
-2.889270000000000000e+05
-2.890640000000000000e+05
-2.826500000000000000e+05
-2.774150000000000000e+05
-2.818140000000000000e+05
-2.885710000000000000e+05
-2.889710000000000000e+05
-2.827760000000000000e+05
-2.773540000000000000e+05
-2.817340000000000000e+05
-2.885740000000000000e+05
-2.891910000000000000e+05
-2.828910000000000000e+05
-2.772470000000000000e+05
-2.816090000000000000e+05
-2.885020000000000000e+05
-2.890070000000000000e+05
-2.828720000000000000e+05
-2.771950000000000000e+05
-2.813490000000000000e+05
-2.883510000000000000e+05
-2.890640000000000000e+05
-2.828750000000000000e+05
-2.773670000000000000e+05
-2.813660000000000000e+05
-2.881430000000000000e+05
-2.887990000000000000e+05
-2.828910000000000000e+05
-2.773560000000000000e+05
-2.810660000000000000e+05
-2.878300000000000000e+05
-2.888600000000000000e+05
-2.830640000000000000e+05
-2.772460000000000000e+05
-2.809220000000000000e+05
-2.878270000000000000e+05
-2.889770000000000000e+05
-2.831700000000000000e+05
-2.771240000000000000e+05
-2.805610000000000000e+05
-2.875860000000000000e+05
-2.888990000000000000e+05
-2.834020000000000000e+05
-2.773820000000000000e+05
-2.807240000000000000e+05
-2.875590000000000000e+05
-2.887100000000000000e+05
-2.830420000000000000e+05
-2.770470000000000000e+05
-2.802140000000000000e+05
-2.874040000000000000e+05
-2.890490000000000000e+05
-2.835210000000000000e+05
-2.773070000000000000e+05
-2.803140000000000000e+05
-2.873850000000000000e+05
-2.891130000000000000e+05
-2.834180000000000000e+05
-2.769920000000000000e+05
-2.801340000000000000e+05
-2.874360000000000000e+05
-2.889320000000000000e+05
-2.833310000000000000e+05
-2.769960000000000000e+05
-2.799310000000000000e+05
-2.870300000000000000e+05
-2.887960000000000000e+05
-2.834560000000000000e+05
-2.771420000000000000e+05
-2.798970000000000000e+05
-2.869060000000000000e+05
-2.888320000000000000e+05
-2.835690000000000000e+05
-2.771310000000000000e+05
-2.798060000000000000e+05
-2.869770000000000000e+05
-2.889710000000000000e+05
-2.834800000000000000e+05
-2.770900000000000000e+05
-2.794860000000000000e+05
-2.866360000000000000e+05
-2.887340000000000000e+05
-2.835740000000000000e+05
-2.769820000000000000e+05
-2.793220000000000000e+05
-2.867530000000000000e+05
-2.892290000000000000e+05
-2.842750000000000000e+05
-2.777130000000000000e+05
-2.800610000000000000e+05
-2.872740000000000000e+05
-2.892040000000000000e+05
-2.839460000000000000e+05
-2.766790000000000000e+05
-2.784070000000000000e+05
-2.855770000000000000e+05
-2.880910000000000000e+05
-2.832820000000000000e+05
-2.768720000000000000e+05
-2.788760000000000000e+05
-2.862660000000000000e+05
-2.889630000000000000e+05
-2.841100000000000000e+05
-2.772490000000000000e+05
-2.789200000000000000e+05
-2.860890000000000000e+05
-2.888200000000000000e+05
-2.842910000000000000e+05
-2.772070000000000000e+05
-2.787190000000000000e+05
-2.861320000000000000e+05
-2.888070000000000000e+05
-2.841660000000000000e+05
-2.772310000000000000e+05
-2.784590000000000000e+05
-2.857770000000000000e+05
-2.888190000000000000e+05
-2.841840000000000000e+05
-2.772170000000000000e+05
-2.785590000000000000e+05
-2.856910000000000000e+05
-2.886880000000000000e+05
-2.841970000000000000e+05
-2.772350000000000000e+05
-2.783350000000000000e+05
-2.856920000000000000e+05
-2.887920000000000000e+05
-2.843940000000000000e+05
-2.771940000000000000e+05
-2.781060000000000000e+05
-2.852610000000000000e+05
-2.886420000000000000e+05
-2.846130000000000000e+05
-2.774260000000000000e+05
-2.779480000000000000e+05
-2.852810000000000000e+05
-2.887620000000000000e+05
-2.845060000000000000e+05
-2.772210000000000000e+05
-2.778900000000000000e+05
-2.851460000000000000e+05
-2.887690000000000000e+05
-2.847460000000000000e+05
-2.773670000000000000e+05
-2.777650000000000000e+05
-2.851770000000000000e+05
-2.888370000000000000e+05
-2.847170000000000000e+05
-2.773890000000000000e+05
-2.776210000000000000e+05
-2.848700000000000000e+05
-2.885940000000000000e+05
-2.847640000000000000e+05
-2.776690000000000000e+05
-2.777090000000000000e+05
-2.849700000000000000e+05
-2.885660000000000000e+05
-2.849670000000000000e+05
-2.777580000000000000e+05
-2.775180000000000000e+05
-2.845430000000000000e+05
-2.883590000000000000e+05
-2.848460000000000000e+05
-2.776690000000000000e+05
-2.773790000000000000e+05
-2.843990000000000000e+05
-2.883830000000000000e+05
-2.848840000000000000e+05
-2.777070000000000000e+05
-2.772990000000000000e+05
-2.845020000000000000e+05
-2.886020000000000000e+05
-2.851590000000000000e+05
-2.775870000000000000e+05
-2.771430000000000000e+05
-2.843690000000000000e+05
-2.884990000000000000e+05
-2.851360000000000000e+05
-2.779320000000000000e+05
-2.770290000000000000e+05
-2.840880000000000000e+05
-2.883890000000000000e+05
-2.852080000000000000e+05
-2.779600000000000000e+05
-2.770690000000000000e+05
-2.840070000000000000e+05
-2.883770000000000000e+05
-2.851310000000000000e+05
-2.777730000000000000e+05
-2.766760000000000000e+05
-2.837770000000000000e+05
-2.883550000000000000e+05
-2.853060000000000000e+05
-2.779470000000000000e+05
-2.769630000000000000e+05
-2.838540000000000000e+05
-2.880490000000000000e+05
-2.852590000000000000e+05
-2.779680000000000000e+05
-2.766040000000000000e+05
-2.836810000000000000e+05
-2.882690000000000000e+05
-2.853240000000000000e+05
-2.779610000000000000e+05
-2.765760000000000000e+05
-2.833720000000000000e+05
-2.880700000000000000e+05
-2.854760000000000000e+05
-2.782670000000000000e+05
-2.765390000000000000e+05
-2.833350000000000000e+05
-2.880930000000000000e+05
-2.856740000000000000e+05
-2.782240000000000000e+05
-2.762070000000000000e+05
-2.830180000000000000e+05
-2.880670000000000000e+05
-2.854780000000000000e+05
-2.783120000000000000e+05
-2.762220000000000000e+05
-2.829860000000000000e+05
-2.880050000000000000e+05
-2.856330000000000000e+05
-2.784040000000000000e+05
-2.762620000000000000e+05
-2.830190000000000000e+05
-2.878340000000000000e+05
-2.854780000000000000e+05
-2.784240000000000000e+05
-2.762760000000000000e+05
-2.825590000000000000e+05
-2.876170000000000000e+05
-2.855120000000000000e+05
-2.783620000000000000e+05
-2.759790000000000000e+05
-2.824820000000000000e+05
-2.877350000000000000e+05
-2.857730000000000000e+05
-2.786580000000000000e+05
-2.761040000000000000e+05
-2.824340000000000000e+05
-2.875590000000000000e+05
-2.855950000000000000e+05
-2.784890000000000000e+05
-2.758010000000000000e+05
-2.824420000000000000e+05
-2.880270000000000000e+05
-2.860560000000000000e+05
-2.790550000000000000e+05
-2.762630000000000000e+05
-2.826120000000000000e+05
-2.881510000000000000e+05
-2.861130000000000000e+05
-2.784190000000000000e+05
-2.748960000000000000e+05
-2.810510000000000000e+05
-2.868490000000000000e+05
-2.856450000000000000e+05
-2.786670000000000000e+05
-2.752260000000000000e+05
-2.817090000000000000e+05
-2.874170000000000000e+05
-2.857410000000000000e+05
-2.789250000000000000e+05
-2.754590000000000000e+05
-2.813580000000000000e+05
-2.873070000000000000e+05
-2.859810000000000000e+05
-2.789810000000000000e+05
-2.753910000000000000e+05
-2.815630000000000000e+05
-2.872490000000000000e+05
-2.859560000000000000e+05
-2.790280000000000000e+05
-2.753240000000000000e+05
-2.811290000000000000e+05
-2.869340000000000000e+05
-2.859540000000000000e+05
-2.791360000000000000e+05
-2.752260000000000000e+05
-2.808150000000000000e+05
-2.868430000000000000e+05
-2.858690000000000000e+05
-2.789790000000000000e+05
-2.750430000000000000e+05
-2.808390000000000000e+05
-2.869450000000000000e+05
-2.859410000000000000e+05
-2.790590000000000000e+05
-2.750170000000000000e+05
-2.805870000000000000e+05
-2.866910000000000000e+05
-2.860190000000000000e+05
-2.792970000000000000e+05
-2.749490000000000000e+05
-2.806040000000000000e+05
-2.870140000000000000e+05
-2.861570000000000000e+05
-2.789850000000000000e+05
-2.744730000000000000e+05
-2.803390000000000000e+05
-2.867660000000000000e+05
-2.861540000000000000e+05
-2.794890000000000000e+05
-2.748740000000000000e+05
-2.802000000000000000e+05
-2.865190000000000000e+05
-2.860750000000000000e+05
-2.793650000000000000e+05
-2.747470000000000000e+05
-2.800510000000000000e+05
-2.864320000000000000e+05
-2.862140000000000000e+05
-2.796170000000000000e+05
-2.748220000000000000e+05
-2.800300000000000000e+05
-2.865060000000000000e+05
-2.862340000000000000e+05
-2.798110000000000000e+05
-2.746300000000000000e+05
-2.795830000000000000e+05
-2.863250000000000000e+05
-2.861760000000000000e+05
-2.796340000000000000e+05
-2.747470000000000000e+05
-2.797370000000000000e+05
-2.861130000000000000e+05
-2.859960000000000000e+05
-2.796130000000000000e+05
-2.745310000000000000e+05
-2.794090000000000000e+05
-2.860270000000000000e+05
-2.861940000000000000e+05
-2.797680000000000000e+05
-2.745210000000000000e+05
-2.794910000000000000e+05
-2.859450000000000000e+05
-2.859950000000000000e+05
-2.798670000000000000e+05
-2.746050000000000000e+05
-2.791520000000000000e+05
-2.857810000000000000e+05
-2.861920000000000000e+05
-2.799680000000000000e+05
-2.746430000000000000e+05
-2.790020000000000000e+05
-2.857360000000000000e+05
-2.862750000000000000e+05
-2.801600000000000000e+05
-2.746780000000000000e+05
-2.789610000000000000e+05
-2.858390000000000000e+05
-2.864040000000000000e+05
-2.801990000000000000e+05
-2.743530000000000000e+05
-2.785060000000000000e+05
-2.854580000000000000e+05
-2.862530000000000000e+05
-2.802360000000000000e+05
-2.744310000000000000e+05
-2.784010000000000000e+05
-2.854820000000000000e+05
-2.864670000000000000e+05
-2.803320000000000000e+05
-2.744790000000000000e+05
-2.784600000000000000e+05
-2.853860000000000000e+05
-2.864930000000000000e+05
-2.805590000000000000e+05
-2.745590000000000000e+05
-2.782960000000000000e+05
-2.853650000000000000e+05
-2.866360000000000000e+05
-2.807400000000000000e+05
-2.745990000000000000e+05
-2.781560000000000000e+05
-2.850620000000000000e+05
-2.864740000000000000e+05
-2.805740000000000000e+05
-2.744590000000000000e+05
-2.781580000000000000e+05
-2.853420000000000000e+05
-2.863760000000000000e+05
-2.804760000000000000e+05
-2.744520000000000000e+05
-2.779010000000000000e+05
-2.849540000000000000e+05
-2.863120000000000000e+05
-2.807340000000000000e+05
-2.745500000000000000e+05
-2.777510000000000000e+05
-2.848270000000000000e+05
-2.862830000000000000e+05
-2.809320000000000000e+05
-2.746240000000000000e+05
-2.777150000000000000e+05
-2.846810000000000000e+05
-2.862350000000000000e+05
-2.808810000000000000e+05
-2.744540000000000000e+05
-2.773620000000000000e+05
-2.845340000000000000e+05
-2.863270000000000000e+05
-2.810990000000000000e+05
-2.744850000000000000e+05
-2.774170000000000000e+05
-2.848610000000000000e+05
-2.870780000000000000e+05
-2.818550000000000000e+05
-2.753240000000000000e+05
-2.778460000000000000e+05
-2.846230000000000000e+05
-2.857480000000000000e+05
-2.800780000000000000e+05
-2.735790000000000000e+05
-2.761380000000000000e+05
-2.837840000000000000e+05
-2.862740000000000000e+05
-2.811270000000000000e+05
-2.744560000000000000e+05
-2.766640000000000000e+05
-2.840500000000000000e+05
-2.863490000000000000e+05
-2.814060000000000000e+05
-2.746010000000000000e+05
-2.765490000000000000e+05
-2.837320000000000000e+05
-2.861380000000000000e+05
-2.813380000000000000e+05
-2.744240000000000000e+05
-2.764860000000000000e+05
-2.838460000000000000e+05
-2.862540000000000000e+05
-2.814310000000000000e+05
-2.745360000000000000e+05
-2.762110000000000000e+05
-2.834380000000000000e+05
-2.860970000000000000e+05
-2.814660000000000000e+05
-2.746360000000000000e+05
-2.764280000000000000e+05
-2.834970000000000000e+05
-2.861320000000000000e+05
-2.813560000000000000e+05
-2.742620000000000000e+05
-2.758510000000000000e+05
-2.834010000000000000e+05
-2.862440000000000000e+05
-2.816520000000000000e+05
-2.745190000000000000e+05
-2.758090000000000000e+05
-2.832140000000000000e+05
-2.862080000000000000e+05
-2.815350000000000000e+05
-2.744040000000000000e+05
-2.756520000000000000e+05
-2.828660000000000000e+05
-2.860660000000000000e+05
-2.817090000000000000e+05
-2.745560000000000000e+05
-2.754980000000000000e+05
-2.829920000000000000e+05
-2.861220000000000000e+05
-2.817210000000000000e+05
-2.745620000000000000e+05
-2.755330000000000000e+05
-2.828540000000000000e+05
-2.861390000000000000e+05
-2.818690000000000000e+05
-2.746160000000000000e+05
-2.754080000000000000e+05
-2.830020000000000000e+05
-2.864600000000000000e+05
-2.820080000000000000e+05
-2.745390000000000000e+05
-2.752450000000000000e+05
-2.827640000000000000e+05
-2.860790000000000000e+05
-2.818790000000000000e+05
-2.745780000000000000e+05
-2.751220000000000000e+05
-2.826450000000000000e+05
-2.862420000000000000e+05
-2.822710000000000000e+05
-2.746490000000000000e+05
-2.748340000000000000e+05
-2.822470000000000000e+05
-2.860300000000000000e+05
-2.822340000000000000e+05
-2.747480000000000000e+05
-2.746040000000000000e+05
-2.820720000000000000e+05
-2.859230000000000000e+05
-2.821910000000000000e+05
-2.746590000000000000e+05
-2.745660000000000000e+05
-2.821360000000000000e+05
-2.860310000000000000e+05
-2.821560000000000000e+05
-2.745940000000000000e+05
-2.744650000000000000e+05
-2.819360000000000000e+05
-2.860130000000000000e+05
-2.824090000000000000e+05
-2.747640000000000000e+05
-2.741800000000000000e+05
-2.816860000000000000e+05
-2.855360000000000000e+05
-2.821220000000000000e+05
-2.747840000000000000e+05
-2.742210000000000000e+05
-2.814210000000000000e+05
-2.857080000000000000e+05
-2.824160000000000000e+05
-2.748960000000000000e+05
-2.740720000000000000e+05
-2.813690000000000000e+05
-2.858620000000000000e+05
-2.825370000000000000e+05
-2.748390000000000000e+05
-2.738990000000000000e+05
-2.811930000000000000e+05
-2.857370000000000000e+05
-2.826090000000000000e+05
-2.748670000000000000e+05
-2.736800000000000000e+05
-2.809730000000000000e+05
-2.856040000000000000e+05
