-2.823631000000000000e+06
-2.698094000000000000e+06
-2.557039000000000000e+06
-2.515491000000000000e+06
-2.533802000000000000e+06
-2.652467000000000000e+06
-2.676860000000000000e+06
-2.649442000000000000e+06
-2.621387000000000000e+06
-2.596532000000000000e+06
-2.573800000000000000e+06
-2.552027000000000000e+06
-2.530801000000000000e+06
-2.514589000000000000e+06
-2.499007000000000000e+06
-2.483704000000000000e+06
-2.469993000000000000e+06
-2.457207000000000000e+06
-2.444680000000000000e+06
-2.433457000000000000e+06
-2.423646000000000000e+06
-2.414500000000000000e+06
-2.403815000000000000e+06
-2.397469000000000000e+06
-2.392662000000000000e+06
-2.385164000000000000e+06
-2.378942000000000000e+06
-2.374452000000000000e+06
-2.369550000000000000e+06
-2.359101000000000000e+06
-2.167465000000000000e+06
-1.692233000000000000e+06
-1.509276000000000000e+06
-1.569825000000000000e+06
-1.670694000000000000e+06
-1.768529000000000000e+06
-2.180629000000000000e+06
-2.553782000000000000e+06
-2.623456000000000000e+06
-2.600534000000000000e+06
-2.576025000000000000e+06
-2.552738000000000000e+06
-2.530188000000000000e+06
-2.513289000000000000e+06
-2.497952000000000000e+06
-2.482682000000000000e+06
-2.467852000000000000e+06
-2.453474000000000000e+06
-2.441142000000000000e+06
-2.431262000000000000e+06
-2.420981000000000000e+06
-2.410081000000000000e+06
-2.399765000000000000e+06
-2.393700000000000000e+06
-2.388471000000000000e+06
-2.381512000000000000e+06
-2.375927000000000000e+06
-2.370912000000000000e+06
-2.365677000000000000e+06
-2.361040000000000000e+06
-2.356327000000000000e+06
-2.351125000000000000e+06
-2.345806000000000000e+06
-2.344296000000000000e+06
-2.339613000000000000e+06
-2.279068000000000000e+06
-2.199636000000000000e+06
-1.871371000000000000e+06
-1.348554000000000000e+06
-1.420573000000000000e+06
-1.586701000000000000e+06
-1.657107000000000000e+06
-1.708053000000000000e+06
-1.757264000000000000e+06
-1.809537000000000000e+06
-1.861096000000000000e+06
-1.900440000000000000e+06
-1.916507000000000000e+06
-1.943476000000000000e+06
-1.970253000000000000e+06
-2.000063000000000000e+06
-2.024097000000000000e+06
-2.035629000000000000e+06
-1.930822000000000000e+06
-1.871426000000000000e+06
-1.940241000000000000e+06
-2.128962000000000000e+06
-2.167615000000000000e+06
-2.179247000000000000e+06
-2.187901000000000000e+06
-2.197091000000000000e+06
-2.213144000000000000e+06
-2.218495000000000000e+06
-2.221612000000000000e+06
-2.228241000000000000e+06
-2.242557000000000000e+06
-2.121726000000000000e+06
-2.133977000000000000e+06
-2.252390000000000000e+06
-2.268034000000000000e+06
-2.270856000000000000e+06
-2.271979000000000000e+06
-2.272659000000000000e+06
-2.276389000000000000e+06
-2.280322000000000000e+06
-2.281741000000000000e+06
-2.283086000000000000e+06
-2.284969000000000000e+06
-2.286669000000000000e+06
-2.287161000000000000e+06
-2.286475000000000000e+06
-2.286800000000000000e+06
-2.286069000000000000e+06
-2.288019000000000000e+06
-2.291536000000000000e+06
-2.292944000000000000e+06
-2.292357000000000000e+06
-2.293390000000000000e+06
-2.290682000000000000e+06
-2.288496000000000000e+06
-2.288883000000000000e+06
-2.289587000000000000e+06
-2.288611000000000000e+06
-2.290551000000000000e+06
-2.292622000000000000e+06
-2.293431000000000000e+06
-2.297076000000000000e+06
-2.305751000000000000e+06
-2.305581000000000000e+06
-2.243345000000000000e+06
-2.073379000000000000e+06
-2.175057000000000000e+06
-2.320874000000000000e+06
-2.335460000000000000e+06
-2.335541000000000000e+06
-2.344182000000000000e+06
-2.374365000000000000e+06
-2.382434000000000000e+06
-2.308297000000000000e+06
-2.278987000000000000e+06
-2.327301000000000000e+06
-2.322107000000000000e+06
-2.292246000000000000e+06
-2.134464000000000000e+06
-2.085015000000000000e+06
-2.251164000000000000e+06
-2.347956000000000000e+06
-2.359325000000000000e+06
-2.352866000000000000e+06
-2.350369000000000000e+06
-2.318014000000000000e+06
-2.191840000000000000e+06
-2.283143000000000000e+06
-2.342519000000000000e+06
-2.343234000000000000e+06
-2.339434000000000000e+06
-2.335504000000000000e+06
-2.333027000000000000e+06
-2.331931000000000000e+06
-2.331706000000000000e+06
-2.329762000000000000e+06
-2.326949000000000000e+06
-2.322939000000000000e+06
-2.330721000000000000e+06
-2.340756000000000000e+06
-2.337763000000000000e+06
-2.333766000000000000e+06
-2.334528000000000000e+06
-2.321547000000000000e+06
-2.315036000000000000e+06
-2.313791000000000000e+06
-2.306229000000000000e+06
-2.303519000000000000e+06
-2.321171000000000000e+06
-2.319116000000000000e+06
-2.314066000000000000e+06
-2.312611000000000000e+06
-2.314400000000000000e+06
-2.312958000000000000e+06
-2.307878000000000000e+06
-2.302735000000000000e+06
-2.301577000000000000e+06
-2.303370000000000000e+06
-2.312062000000000000e+06
-2.310996000000000000e+06
-2.305069000000000000e+06
-2.304354000000000000e+06
-2.309058000000000000e+06
-2.309279000000000000e+06
-2.307902000000000000e+06
-2.309331000000000000e+06
-2.306932000000000000e+06
-2.295769000000000000e+06
-2.237072000000000000e+06
-2.093631000000000000e+06
-2.136341000000000000e+06
-2.318996000000000000e+06
-2.349322000000000000e+06
-2.353577000000000000e+06
-2.350258000000000000e+06
-2.340127000000000000e+06
-2.336292000000000000e+06
-2.327354000000000000e+06
-2.323974000000000000e+06
-2.324052000000000000e+06
-2.322690000000000000e+06
-2.318277000000000000e+06
-2.201015000000000000e+06
-2.070636000000000000e+06
-2.203982000000000000e+06
-2.344296000000000000e+06
-2.362228000000000000e+06
-2.355250000000000000e+06
-2.347659000000000000e+06
-2.318767000000000000e+06
-2.195012000000000000e+06
-2.290534000000000000e+06
-2.347748000000000000e+06
-2.347130000000000000e+06
-2.343421000000000000e+06
-2.341439000000000000e+06
-2.334392000000000000e+06
-2.313211000000000000e+06
-2.327165000000000000e+06
-2.330744000000000000e+06
-2.326509000000000000e+06
-2.326479000000000000e+06
-2.328246000000000000e+06
-2.326970000000000000e+06
-2.325318000000000000e+06
-2.324171000000000000e+06
-2.323664000000000000e+06
-2.320958000000000000e+06
-2.318477000000000000e+06
-2.312657000000000000e+06
-2.279987000000000000e+06
-2.299990000000000000e+06
-2.319192000000000000e+06
-2.342283000000000000e+06
-2.377491000000000000e+06
-2.348909000000000000e+06
-2.263582000000000000e+06
-2.297629000000000000e+06
-2.316647000000000000e+06
-2.312551000000000000e+06
-2.312726000000000000e+06
-2.312102000000000000e+06
-2.311873000000000000e+06
-2.311554000000000000e+06
-2.310701000000000000e+06
-2.309397000000000000e+06
-2.305934000000000000e+06
-2.303227000000000000e+06
-2.303601000000000000e+06
-2.305138000000000000e+06
-2.306818000000000000e+06
-2.304711000000000000e+06
-2.249485000000000000e+06
-2.154621000000000000e+06
-2.103828000000000000e+06
-2.259021000000000000e+06
-2.331400000000000000e+06
-2.336812000000000000e+06
-2.346503000000000000e+06
-2.345846000000000000e+06
-2.345950000000000000e+06
-2.347915000000000000e+06
-2.337077000000000000e+06
-2.182907000000000000e+06
-2.193846000000000000e+06
-2.247827000000000000e+06
-2.268889000000000000e+06
-2.341702000000000000e+06
-2.345974000000000000e+06
-2.345619000000000000e+06
-2.348764000000000000e+06
-2.348272000000000000e+06
-2.348296000000000000e+06
-2.338172000000000000e+06
-2.337985000000000000e+06
-2.331591000000000000e+06
-2.328797000000000000e+06
-2.321785000000000000e+06
-2.316082000000000000e+06
-2.193207000000000000e+06
-2.213054000000000000e+06
-2.319228000000000000e+06
-2.327796000000000000e+06
-2.329382000000000000e+06
-2.334232000000000000e+06
-2.332447000000000000e+06
-2.328388000000000000e+06
-2.319357000000000000e+06
-2.315386000000000000e+06
-2.316677000000000000e+06
-2.321025000000000000e+06
-2.323749000000000000e+06
-2.322266000000000000e+06
-2.320130000000000000e+06
-2.322730000000000000e+06
-2.331924000000000000e+06
-2.329178000000000000e+06
-2.317217000000000000e+06
-2.311363000000000000e+06
-2.315194000000000000e+06
-2.316754000000000000e+06
-2.315654000000000000e+06
-2.315119000000000000e+06
-2.314929000000000000e+06
-2.312004000000000000e+06
-2.308286000000000000e+06
-2.307500000000000000e+06
-2.305328000000000000e+06
-2.307132000000000000e+06
-2.308495000000000000e+06
-2.308448000000000000e+06
-2.310273000000000000e+06
-2.308793000000000000e+06
-2.305326000000000000e+06
-2.310354000000000000e+06
-2.308622000000000000e+06
-2.244457000000000000e+06
-2.081714000000000000e+06
-2.176501000000000000e+06
-2.325795000000000000e+06
-2.339016000000000000e+06
-2.335741000000000000e+06
-2.337474000000000000e+06
-2.336922000000000000e+06
-2.334586000000000000e+06
-2.306092000000000000e+06
-2.141539000000000000e+06
-2.099281000000000000e+06
-2.294075000000000000e+06
-2.359488000000000000e+06
-2.356779000000000000e+06
-2.352829000000000000e+06
-2.348341000000000000e+06
-2.348649000000000000e+06
-2.348727000000000000e+06
-2.353794000000000000e+06
-2.381844000000000000e+06
-2.379381000000000000e+06
-2.196497000000000000e+06
-2.177836000000000000e+06
-2.310514000000000000e+06
-2.338456000000000000e+06
-2.339357000000000000e+06
-2.337072000000000000e+06
-2.334716000000000000e+06
-2.333972000000000000e+06
-2.330249000000000000e+06
-2.323897000000000000e+06
-2.323223000000000000e+06
-2.317803000000000000e+06
-2.315400000000000000e+06
-2.320748000000000000e+06
-2.322194000000000000e+06
-2.320246000000000000e+06
-2.317132000000000000e+06
-2.311224000000000000e+06
-2.319795000000000000e+06
-2.325597000000000000e+06
-2.318431000000000000e+06
-2.307638000000000000e+06
-2.305206000000000000e+06
-2.302873000000000000e+06
-2.308537000000000000e+06
-2.321699000000000000e+06
-2.329065000000000000e+06
-2.325704000000000000e+06
-2.323478000000000000e+06
-2.320882000000000000e+06
-2.311429000000000000e+06
-2.306451000000000000e+06
-2.303214000000000000e+06
-2.303458000000000000e+06
-2.299827000000000000e+06
-2.299397000000000000e+06
-2.297143000000000000e+06
-2.292161000000000000e+06
-2.296541000000000000e+06
-2.301438000000000000e+06
-2.302846000000000000e+06
-2.301861000000000000e+06
-2.243144000000000000e+06
-2.105125000000000000e+06
-2.104418000000000000e+06
-2.297989000000000000e+06
-2.339946000000000000e+06
-2.341413000000000000e+06
-2.342911000000000000e+06
-2.337846000000000000e+06
-2.341098000000000000e+06
-2.332620000000000000e+06
-2.326274000000000000e+06
-2.324719000000000000e+06
-2.325414000000000000e+06
-2.322198000000000000e+06
-2.218287000000000000e+06
-2.089582000000000000e+06
-2.210086000000000000e+06
-2.351714000000000000e+06
-2.377929000000000000e+06
-2.382784000000000000e+06
-2.364659000000000000e+06
-2.341492000000000000e+06
-2.334264000000000000e+06
-2.333979000000000000e+06
-2.333561000000000000e+06
-2.331014000000000000e+06
-2.323759000000000000e+06
-2.319424000000000000e+06
-2.318026000000000000e+06
-2.318902000000000000e+06
-2.328507000000000000e+06
-2.325996000000000000e+06
-2.319752000000000000e+06
-2.317436000000000000e+06
-2.321464000000000000e+06
-2.329784000000000000e+06
-2.329308000000000000e+06
-2.327657000000000000e+06
-2.326720000000000000e+06
-2.326864000000000000e+06
-2.327731000000000000e+06
-2.322881000000000000e+06
-2.315602000000000000e+06
-2.309411000000000000e+06
-2.305366000000000000e+06
-2.301454000000000000e+06
-2.304697000000000000e+06
-2.314002000000000000e+06
-2.318754000000000000e+06
-2.316401000000000000e+06
-2.309602000000000000e+06
-2.314287000000000000e+06
-2.313349000000000000e+06
-2.296748000000000000e+06
-2.156259000000000000e+06
-2.189812000000000000e+06
-2.311916000000000000e+06
-2.333472000000000000e+06
-2.346510000000000000e+06
-2.377008000000000000e+06
-2.355751000000000000e+06
-2.312669000000000000e+06
-2.358104000000000000e+06
-2.338813000000000000e+06
-2.264657000000000000e+06
-2.166401000000000000e+06
-2.112558000000000000e+06
-2.272415000000000000e+06
-2.346805000000000000e+06
-2.377642000000000000e+06
-2.386750000000000000e+06
-2.370064000000000000e+06
-2.375511000000000000e+06
-2.365591000000000000e+06
-2.331379000000000000e+06
-2.325207000000000000e+06
-2.336035000000000000e+06
-2.357459000000000000e+06
-2.355312000000000000e+06
-2.349719000000000000e+06
-2.363239000000000000e+06
-2.337754000000000000e+06
-2.296644000000000000e+06
-2.283327000000000000e+06
-2.283313000000000000e+06
-2.288387000000000000e+06
-2.298296000000000000e+06
-2.270712000000000000e+06
-2.120351000000000000e+06
-2.177799000000000000e+06
-2.216470000000000000e+06
-2.262457000000000000e+06
-2.319924000000000000e+06
-2.325324000000000000e+06
-2.338023000000000000e+06
-2.333123000000000000e+06
-2.320457000000000000e+06
-2.320163000000000000e+06
-2.325431000000000000e+06
-2.326874000000000000e+06
-2.326649000000000000e+06
-2.320285000000000000e+06
-2.307792000000000000e+06
-2.284420000000000000e+06
-2.153142000000000000e+06
-2.253198000000000000e+06
-2.334224000000000000e+06
-2.324939000000000000e+06
-2.323934000000000000e+06
-2.321949000000000000e+06
-2.320442000000000000e+06
-2.320964000000000000e+06
-2.320591000000000000e+06
-2.319218000000000000e+06
-2.317346000000000000e+06
-2.317016000000000000e+06
-2.315257000000000000e+06
-2.311332000000000000e+06
-2.311533000000000000e+06
-2.315585000000000000e+06
-2.325636000000000000e+06
-2.325198000000000000e+06
-2.316043000000000000e+06
-2.309146000000000000e+06
-2.306000000000000000e+06
-2.303853000000000000e+06
-2.305162000000000000e+06
-2.304802000000000000e+06
-2.242972000000000000e+06
-2.080919000000000000e+06
-2.174151000000000000e+06
-2.325647000000000000e+06
-2.338855000000000000e+06
-2.337436000000000000e+06
-2.343224000000000000e+06
-2.342206000000000000e+06
-2.339834000000000000e+06
-2.331725000000000000e+06
-2.325723000000000000e+06
-2.325522000000000000e+06
-2.324477000000000000e+06
-2.307984000000000000e+06
-2.152225000000000000e+06
-2.194173000000000000e+06
-2.316839000000000000e+06
-2.243877000000000000e+06
-2.280295000000000000e+06
-2.335875000000000000e+06
-2.339327000000000000e+06
-2.340732000000000000e+06
-2.349172000000000000e+06
-2.343844000000000000e+06
-2.338482000000000000e+06
-2.333634000000000000e+06
-2.329594000000000000e+06
-2.327298000000000000e+06
-2.324394000000000000e+06
-2.321676000000000000e+06
-2.325151000000000000e+06
-2.323101000000000000e+06
-2.229570000000000000e+06
-2.235961000000000000e+06
-2.369189000000000000e+06
-2.311827000000000000e+06
-2.294977000000000000e+06
-2.331500000000000000e+06
-2.328467000000000000e+06
-2.323717000000000000e+06
-2.322064000000000000e+06
-2.321484000000000000e+06
-2.322901000000000000e+06
-2.318249000000000000e+06
-2.310739000000000000e+06
-2.317929000000000000e+06
-2.329881000000000000e+06
-2.328836000000000000e+06
-2.314451000000000000e+06
-2.311862000000000000e+06
-2.320824000000000000e+06
-2.316137000000000000e+06
-2.302971000000000000e+06
-2.304408000000000000e+06
-2.309383000000000000e+06
-2.310979000000000000e+06
-2.310432000000000000e+06
-2.309261000000000000e+06
-2.306774000000000000e+06
-2.308062000000000000e+06
-2.319719000000000000e+06
-2.326475000000000000e+06
-2.321941000000000000e+06
-2.318981000000000000e+06
-2.263051000000000000e+06
-2.139074000000000000e+06
-2.101569000000000000e+06
-2.286432000000000000e+06
-2.337016000000000000e+06
-2.335103000000000000e+06
-2.333725000000000000e+06
-2.339186000000000000e+06
-2.336779000000000000e+06
-2.331014000000000000e+06
-2.337990000000000000e+06
-2.333508000000000000e+06
-2.323216000000000000e+06
-2.315705000000000000e+06
-2.315507000000000000e+06
-2.319805000000000000e+06
-2.325525000000000000e+06
-2.325688000000000000e+06
-2.316321000000000000e+06
-2.313077000000000000e+06
-2.316152000000000000e+06
-2.314080000000000000e+06
-2.312298000000000000e+06
-2.312013000000000000e+06
-2.311235000000000000e+06
-2.305056000000000000e+06
-2.310586000000000000e+06
-2.320655000000000000e+06
-2.315179000000000000e+06
-2.309294000000000000e+06
-2.316016000000000000e+06
-2.319529000000000000e+06
-2.311181000000000000e+06
-2.311032000000000000e+06
-2.307954000000000000e+06
-2.307838000000000000e+06
-2.312502000000000000e+06
-2.309522000000000000e+06
-2.307183000000000000e+06
-2.305724000000000000e+06
-2.301973000000000000e+06
-2.298646000000000000e+06
-2.297906000000000000e+06
-2.299457000000000000e+06
-2.304967000000000000e+06
-2.308952000000000000e+06
-2.304987000000000000e+06
-2.295403000000000000e+06
-2.306752000000000000e+06
-2.306523000000000000e+06
-2.307701000000000000e+06
-2.304696000000000000e+06
-2.257548000000000000e+06
-2.209046000000000000e+06
-2.300741000000000000e+06
-2.319094000000000000e+06
-2.319521000000000000e+06
-2.321759000000000000e+06
-2.589930000000000000e+06
-3.107011000000000000e+06
-3.144286000000000000e+06
-3.075064000000000000e+06
-3.012817000000000000e+06
-2.953182000000000000e+06
-2.837529000000000000e+06
-2.652966000000000000e+06
-2.217852000000000000e+06
-1.612019000000000000e+06
-1.446380000000000000e+06
-1.531336000000000000e+06
-1.905700000000000000e+06
-2.164779000000000000e+06
-2.215839000000000000e+06
-2.175112000000000000e+06
-2.117189000000000000e+06
-2.179057000000000000e+06
-2.213564000000000000e+06
-2.222360000000000000e+06
-2.212373000000000000e+06
-2.141759000000000000e+06
-2.123054000000000000e+06
-2.213606000000000000e+06
-2.166685000000000000e+06
-2.073223000000000000e+06
-2.184093000000000000e+06
-2.225852000000000000e+06
-2.299504000000000000e+06
-2.304536000000000000e+06
-2.067612000000000000e+06
-2.093329000000000000e+06
-2.289016000000000000e+06
-2.273498000000000000e+06
-2.339187000000000000e+06
-2.347271000000000000e+06
-2.346790000000000000e+06
-2.335784000000000000e+06
-2.333145000000000000e+06
-2.317901000000000000e+06
-2.242497000000000000e+06
-2.284588000000000000e+06
-2.315045000000000000e+06
-2.196384000000000000e+06
-2.295512000000000000e+06
-2.344631000000000000e+06
-2.335754000000000000e+06
-2.336875000000000000e+06
-2.344024000000000000e+06
-2.343182000000000000e+06
-2.332689000000000000e+06
-2.321222000000000000e+06
-2.318690000000000000e+06
-2.318531000000000000e+06
-2.325952000000000000e+06
-2.330891000000000000e+06
-2.327996000000000000e+06
-2.312951000000000000e+06
-2.303446000000000000e+06
-2.308718000000000000e+06
-2.317036000000000000e+06
-2.320434000000000000e+06
-2.311601000000000000e+06
-2.309499000000000000e+06
-2.312169000000000000e+06
-2.318796000000000000e+06
-2.310647000000000000e+06
-2.304616000000000000e+06
-2.305256000000000000e+06
-2.303241000000000000e+06
-2.247427000000000000e+06
-2.106411000000000000e+06
-2.105455000000000000e+06
-2.288286000000000000e+06
-2.346395000000000000e+06
-2.355360000000000000e+06
-2.352812000000000000e+06
-2.327722000000000000e+06
-2.320262000000000000e+06
-2.326882000000000000e+06
-2.321922000000000000e+06
-2.319626000000000000e+06
-2.318694000000000000e+06
-2.318151000000000000e+06
-2.316977000000000000e+06
-2.316267000000000000e+06
-2.313163000000000000e+06
-2.296166000000000000e+06
-2.302211000000000000e+06
-2.308062000000000000e+06
-2.313144000000000000e+06
-2.321989000000000000e+06
-2.320844000000000000e+06
-2.316704000000000000e+06
-2.313300000000000000e+06
-2.311868000000000000e+06
-2.310864000000000000e+06
-2.308894000000000000e+06
-2.312295000000000000e+06
-2.317387000000000000e+06
-2.317899000000000000e+06
-2.315566000000000000e+06
-2.312044000000000000e+06
-2.311264000000000000e+06
-2.311872000000000000e+06
-2.311032000000000000e+06
-2.310682000000000000e+06
-2.312429000000000000e+06
-2.312383000000000000e+06
-2.315471000000000000e+06
-2.313466000000000000e+06
-2.307787000000000000e+06
-2.303490000000000000e+06
-2.304832000000000000e+06
-2.310807000000000000e+06
-2.324242000000000000e+06
-2.363837000000000000e+06
-2.354027000000000000e+06
-2.267170000000000000e+06
-2.280771000000000000e+06
-2.318879000000000000e+06
-2.310198000000000000e+06
-2.257971000000000000e+06
-2.272357000000000000e+06
-2.272832000000000000e+06
-2.236897000000000000e+06
-2.306242000000000000e+06
-2.319843000000000000e+06
-2.322864000000000000e+06
-2.325831000000000000e+06
-2.618986000000000000e+06
-3.117745000000000000e+06
-3.140043000000000000e+06
-3.067373000000000000e+06
-2.945549000000000000e+06
-2.372477000000000000e+06
-2.036533000000000000e+06
-2.021657000000000000e+06
-2.213490000000000000e+06
-2.267444000000000000e+06
-2.281275000000000000e+06
-2.293622000000000000e+06
-2.289355000000000000e+06
-2.295536000000000000e+06
-2.298826000000000000e+06
-2.295596000000000000e+06
-2.299249000000000000e+06
-2.266710000000000000e+06
-2.524177000000000000e+06
-2.234445000000000000e+06
-2.879957000000000000e+06
-2.657054000000000000e+06
-2.503854000000000000e+06
-2.430700000000000000e+06
-2.382713000000000000e+06
-2.347969000000000000e+06
-2.332674000000000000e+06
-2.324062000000000000e+06
-2.316425000000000000e+06
-2.312377000000000000e+06
-2.309526000000000000e+06
-2.307932000000000000e+06
-2.309823000000000000e+06
-2.305579000000000000e+06
-2.305897000000000000e+06
-2.306351000000000000e+06
-2.306417000000000000e+06
-2.306971000000000000e+06
-2.308072000000000000e+06
-2.309356000000000000e+06
-2.307384000000000000e+06
-2.307477000000000000e+06
-2.307525000000000000e+06
-2.304934000000000000e+06
-2.304396000000000000e+06
-2.307480000000000000e+06
-2.305839000000000000e+06
-2.305044000000000000e+06
-2.305694000000000000e+06
-2.307399000000000000e+06
-2.305854000000000000e+06
-1.483776000000000000e+06
-2.579007000000000000e+06
-2.467759000000000000e+06
-2.402413000000000000e+06
-2.356744000000000000e+06
-2.339626000000000000e+06
1.130000000000000000e+02
-2.317152000000000000e+06
-2.314176000000000000e+06
1.810470000000000000e+05
-2.307033000000000000e+06
-2.308167000000000000e+06
-2.308491000000000000e+06
-2.306278000000000000e+06
-2.305767000000000000e+06
-2.305527000000000000e+06
-1.476192000000000000e+06
-2.005992000000000000e+06
-2.117668000000000000e+06
-2.203323000000000000e+06
-2.235644000000000000e+06
-2.272273000000000000e+06
-2.282997000000000000e+06
-2.282502000000000000e+06
-2.307165000000000000e+06
-2.921328000000000000e+06
-2.681741000000000000e+06
-2.535876000000000000e+06
-2.437868000000000000e+06
-2.384469000000000000e+06
-2.352960000000000000e+06
-1.868361000000000000e+06
-2.552881000000000000e+06
-2.454487000000000000e+06
-2.390600000000000000e+06
-2.357052000000000000e+06
-2.337824000000000000e+06
-2.322991000000000000e+06
-2.316112000000000000e+06
-2.315359000000000000e+06
-2.313434000000000000e+06
-2.308247000000000000e+06
-2.307576000000000000e+06
-2.308252000000000000e+06
-2.308656000000000000e+06
-2.306876000000000000e+06
-2.306679000000000000e+06
-2.304450000000000000e+06
-2.305693000000000000e+06
-2.305658000000000000e+06
-2.305001000000000000e+06
-2.307256000000000000e+06
-2.306809000000000000e+06
-2.304874000000000000e+06
-2.306614000000000000e+06
-2.306949000000000000e+06
-2.303554000000000000e+06
-2.306989000000000000e+06
-2.305319000000000000e+06
-2.305252000000000000e+06
-2.305401000000000000e+06
-2.304019000000000000e+06
-2.305836000000000000e+06
-2.306197000000000000e+06
-2.306347000000000000e+06
-1.539709000000000000e+06
-1.872147000000000000e+06
-1.942347000000000000e+06
-2.155928000000000000e+06
-2.215237000000000000e+06
-2.264174000000000000e+06
-2.264172000000000000e+06
-2.266502000000000000e+06
-2.290381000000000000e+06
-2.287652000000000000e+06
-2.236079000000000000e+06
-3.156483000000000000e+06
-2.834760000000000000e+06
-2.605796000000000000e+06
-2.490147000000000000e+06
-4.194304000000000000e+06
-2.046276000000000000e+06
-2.036224000000000000e+06
-2.253425000000000000e+06
-2.193002000000000000e+06
-2.297856000000000000e+06
-2.301700000000000000e+06
-2.301233000000000000e+06
2.500000000000000000e+02
-2.299018000000000000e+06
-2.311836000000000000e+06
-2.312569000000000000e+06
-2.279141000000000000e+06
-3.149317000000000000e+06
1.529409000000000000e+06
-2.594498000000000000e+06
-2.268779000000000000e+06
-2.656662000000000000e+06
-2.551698000000000000e+06
-2.457142000000000000e+06
-2.391975000000000000e+06
-2.356068000000000000e+06
-2.340346000000000000e+06
-2.325954000000000000e+06
-2.321343000000000000e+06
-2.316612000000000000e+06
-2.310647000000000000e+06
-2.308762000000000000e+06
-2.310918000000000000e+06
-2.307533000000000000e+06
-2.307561000000000000e+06
-2.306751000000000000e+06
-2.307751000000000000e+06
-2.304716000000000000e+06
-2.306382000000000000e+06
-2.308174000000000000e+06
-2.307510000000000000e+06
-2.304466000000000000e+06
-2.304535000000000000e+06
-2.304962000000000000e+06
-2.307082000000000000e+06
-2.306127000000000000e+06
-2.305046000000000000e+06
-2.307169000000000000e+06
-2.305034000000000000e+06
-2.306486000000000000e+06
-2.306893000000000000e+06
-2.303252000000000000e+06
-2.307269000000000000e+06
-2.308040000000000000e+06
-2.305207000000000000e+06
-1.647067000000000000e+06
-2.523673000000000000e+06
-2.434211000000000000e+06
-2.382574000000000000e+06
-2.350577000000000000e+06
-2.332003000000000000e+06
-2.321462000000000000e+06
-3.141320000000000000e+05
-2.325227000000000000e+06
-2.407270000000000000e+06
-2.474911000000000000e+06
-2.468706000000000000e+06
-2.453142000000000000e+06
-2.436374000000000000e+06
-2.369898000000000000e+06
-2.260802000000000000e+06
-1.869760000000000000e+06
-1.428239000000000000e+06
-1.533379000000000000e+06
-1.664014000000000000e+06
-1.722399000000000000e+06
-1.770079000000000000e+06
-1.810066000000000000e+06
-1.847121000000000000e+06
-1.885497000000000000e+06
-1.920259000000000000e+06
-1.949597000000000000e+06
-1.976694000000000000e+06
-2.008807000000000000e+06
-2.042721000000000000e+06
-2.059384000000000000e+06
-2.068847000000000000e+06
-2.083010000000000000e+06
-2.099696000000000000e+06
-2.117165000000000000e+06
-2.133400000000000000e+06
-2.147564000000000000e+06
-2.158092000000000000e+06
-2.169437000000000000e+06
-2.178806000000000000e+06
-2.187581000000000000e+06
-2.200722000000000000e+06
-2.208619000000000000e+06
-2.214109000000000000e+06
-2.221023000000000000e+06
-2.227848000000000000e+06
-2.233781000000000000e+06
-2.239252000000000000e+06
-2.244474000000000000e+06
-2.248368000000000000e+06
-2.252694000000000000e+06
-2.254814000000000000e+06
-2.253928000000000000e+06
-2.255856000000000000e+06
-2.261214000000000000e+06
-2.263212000000000000e+06
-2.263019000000000000e+06
-2.265668000000000000e+06
-2.272333000000000000e+06
-2.277607000000000000e+06
-2.280010000000000000e+06
-2.286136000000000000e+06
-2.280191000000000000e+06
-2.275613000000000000e+06
-2.290624000000000000e+06
-2.294207000000000000e+06
-2.295424000000000000e+06
-2.264749000000000000e+06
-2.174026000000000000e+06
-2.280079000000000000e+06
-2.362665000000000000e+06
-2.383733000000000000e+06
-2.650772000000000000e+06
-3.034987000000000000e+06
-3.116549000000000000e+06
-3.062054000000000000e+06
-3.001452000000000000e+06
-2.942504000000000000e+06
1.773242000000000000e+06
-2.301006000000000000e+06
-1.650117000000000000e+06
-1.521947000000000000e+06
-1.823951000000000000e+06
-2.025639000000000000e+06
-2.084236000000000000e+06
-2.103327000000000000e+06
-2.117428000000000000e+06
-2.126817000000000000e+06
-2.020646000000000000e+06
-1.919684000000000000e+06
-2.095800000000000000e+06
-2.200412000000000000e+06
-2.223664000000000000e+06
-2.232981000000000000e+06
-2.239107000000000000e+06
-2.227044000000000000e+06
-2.234837000000000000e+06
-2.254727000000000000e+06
-2.158257000000000000e+06
-2.147828000000000000e+06
-2.273855000000000000e+06
-2.280665000000000000e+06
-2.277801000000000000e+06
-2.282369000000000000e+06
-2.285142000000000000e+06
-2.290862000000000000e+06
-2.301702000000000000e+06
-2.301424000000000000e+06
-2.302840000000000000e+06
-2.291701000000000000e+06
-2.289844000000000000e+06
-2.288877000000000000e+06
-2.281174000000000000e+06
-2.280723000000000000e+06
-2.286212000000000000e+06
-2.293855000000000000e+06
-2.293417000000000000e+06
-2.294563000000000000e+06
-2.292569000000000000e+06
-2.295365000000000000e+06
-2.301128000000000000e+06
-2.298538000000000000e+06
-2.292511000000000000e+06
-2.295308000000000000e+06
-2.296401000000000000e+06
-2.296969000000000000e+06
-2.297363000000000000e+06
-2.300403000000000000e+06
-2.306257000000000000e+06
-2.308453000000000000e+06
-2.314732000000000000e+06
-2.315833000000000000e+06
-2.303982000000000000e+06
-2.305734000000000000e+06
-2.303786000000000000e+06
-2.302586000000000000e+06
-2.303272000000000000e+06
-2.302754000000000000e+06
-2.301811000000000000e+06
-2.299618000000000000e+06
-2.298399000000000000e+06
-2.294809000000000000e+06
-2.234381000000000000e+06
-2.075587000000000000e+06
-2.179686000000000000e+06
-2.325349000000000000e+06
-2.338264000000000000e+06
-2.337409000000000000e+06
-2.347879000000000000e+06
-2.349171000000000000e+06
-2.332775000000000000e+06
-2.334461000000000000e+06
-2.327694000000000000e+06
-2.321423000000000000e+06
-2.320591000000000000e+06
-2.318871000000000000e+06
-2.224906000000000000e+06
-2.084766000000000000e+06
-2.176457000000000000e+06
-2.329402000000000000e+06
-2.358136000000000000e+06
-2.351983000000000000e+06
-2.344762000000000000e+06
-2.342538000000000000e+06
-2.228734000000000000e+06
-2.206522000000000000e+06
-2.326169000000000000e+06
-2.331895000000000000e+06
-2.300584000000000000e+06
-2.327933000000000000e+06
-2.346211000000000000e+06
-2.377592000000000000e+06
-2.394254000000000000e+06
-2.340429000000000000e+06
-2.276907000000000000e+06
-2.320133000000000000e+06
-2.321848000000000000e+06
-2.318044000000000000e+06
-2.315971000000000000e+06
-2.314812000000000000e+06
-2.315724000000000000e+06
-2.314064000000000000e+06
-2.311957000000000000e+06
-2.313582000000000000e+06
-2.313732000000000000e+06
-2.312714000000000000e+06
-2.312299000000000000e+06
-2.317304000000000000e+06
-2.318801000000000000e+06
-2.314699000000000000e+06
-2.314573000000000000e+06
-2.312184000000000000e+06
-2.310258000000000000e+06
-2.312825000000000000e+06
-2.313129000000000000e+06
-2.308072000000000000e+06
-2.304377000000000000e+06
-2.305329000000000000e+06
-2.315537000000000000e+06
-2.327746000000000000e+06
-2.327952000000000000e+06
-2.322561000000000000e+06
-2.324448000000000000e+06
-2.315961000000000000e+06
-2.302347000000000000e+06
-2.299240000000000000e+06
-2.245711000000000000e+06
-2.158411000000000000e+06
-2.106260000000000000e+06
-2.255347000000000000e+06
-2.333604000000000000e+06
-2.339593000000000000e+06
-2.344911000000000000e+06
-2.350431000000000000e+06
-2.341954000000000000e+06
-2.326552000000000000e+06
-2.328974000000000000e+06
-2.336146000000000000e+06
-2.338697000000000000e+06
-2.333752000000000000e+06
-2.320549000000000000e+06
-2.175898000000000000e+06
-2.071006000000000000e+06
-2.207447000000000000e+06
-2.342869000000000000e+06
-2.351826000000000000e+06
-2.347126000000000000e+06
-2.342853000000000000e+06
-2.340362000000000000e+06
-2.338363000000000000e+06
-2.335816000000000000e+06
-2.333724000000000000e+06
-2.335354000000000000e+06
-2.340490000000000000e+06
-2.332979000000000000e+06
-2.324349000000000000e+06
-2.322232000000000000e+06
-2.320045000000000000e+06
-2.317362000000000000e+06
-2.317447000000000000e+06
-2.317359000000000000e+06
-2.314474000000000000e+06
-2.312343000000000000e+06
-2.313774000000000000e+06
-2.312971000000000000e+06
-2.313634000000000000e+06
-2.313551000000000000e+06
-2.311673000000000000e+06
-2.311136000000000000e+06
-2.311168000000000000e+06
-2.311749000000000000e+06
-2.316327000000000000e+06
-2.315167000000000000e+06
-2.315287000000000000e+06
-2.314229000000000000e+06
-2.310081000000000000e+06
-2.228981000000000000e+06
-2.179843000000000000e+06
-2.301897000000000000e+06
-2.315969000000000000e+06
-2.312907000000000000e+06
-2.311116000000000000e+06
-2.314609000000000000e+06
-2.318892000000000000e+06
-2.321480000000000000e+06
-2.326339000000000000e+06
-2.324837000000000000e+06
-2.319752000000000000e+06
-2.328319000000000000e+06
-2.330491000000000000e+06
-2.247069000000000000e+06
-2.072417000000000000e+06
-2.193669000000000000e+06
-2.354507000000000000e+06
-2.400271000000000000e+06
-2.384761000000000000e+06
-2.293272000000000000e+06
-2.304776000000000000e+06
-2.328866000000000000e+06
-2.328381000000000000e+06
-2.239264000000000000e+06
-2.098899000000000000e+06
-2.163632000000000000e+06
-2.319608000000000000e+06
-2.358542000000000000e+06
-2.362527000000000000e+06
-2.358924000000000000e+06
-2.351175000000000000e+06
-2.264042000000000000e+06
-2.209774000000000000e+06
-2.324924000000000000e+06
-2.344494000000000000e+06
-2.339974000000000000e+06
-2.338634000000000000e+06
-2.338884000000000000e+06
-2.337569000000000000e+06
-2.335062000000000000e+06
-2.332781000000000000e+06
-2.331014000000000000e+06
-2.329491000000000000e+06
-2.329848000000000000e+06
-2.337795000000000000e+06
-2.339124000000000000e+06
-2.331973000000000000e+06
-2.331422000000000000e+06
-2.335892000000000000e+06
-2.319606000000000000e+06
-2.309899000000000000e+06
-2.321182000000000000e+06
-2.332524000000000000e+06
-2.320795000000000000e+06
-2.299102000000000000e+06
-2.288839000000000000e+06
-2.308247000000000000e+06
-2.316226000000000000e+06
-2.323768000000000000e+06
-2.315026000000000000e+06
-2.303444000000000000e+06
-2.299962000000000000e+06
-2.313168000000000000e+06
-2.320821000000000000e+06
-2.311420000000000000e+06
-2.308979000000000000e+06
-2.309159000000000000e+06
-2.309923000000000000e+06
-2.309335000000000000e+06
-2.307319000000000000e+06
-2.298600000000000000e+06
-2.300946000000000000e+06
-2.308192000000000000e+06
-2.311069000000000000e+06
-2.307101000000000000e+06
-2.303311000000000000e+06
-2.301501000000000000e+06
-2.245170000000000000e+06
-2.186097000000000000e+06
-2.190079000000000000e+06
-2.186851000000000000e+06
-2.318292000000000000e+06
-2.338476000000000000e+06
-2.341558000000000000e+06
-2.340579000000000000e+06
-2.339514000000000000e+06
-2.332796000000000000e+06
-2.247861000000000000e+06
-2.082136000000000000e+06
-2.177171000000000000e+06
-2.339064000000000000e+06
-2.364292000000000000e+06
-2.362371000000000000e+06
-2.352622000000000000e+06
-2.343006000000000000e+06
-2.266918000000000000e+06
-2.205284000000000000e+06
-2.330081000000000000e+06
-2.346522000000000000e+06
-2.342476000000000000e+06
-2.338946000000000000e+06
-2.335862000000000000e+06
-2.333889000000000000e+06
-2.331979000000000000e+06
-2.330159000000000000e+06
-2.324496000000000000e+06
-2.324090000000000000e+06
-2.327774000000000000e+06
-2.328641000000000000e+06
-2.322484000000000000e+06
-2.320422000000000000e+06
-2.323215000000000000e+06
-2.322579000000000000e+06
-2.322900000000000000e+06
-2.320362000000000000e+06
-2.306167000000000000e+06
-2.283742000000000000e+06
-2.312829000000000000e+06
-2.330184000000000000e+06
-2.364746000000000000e+06
-2.377175000000000000e+06
-2.308064000000000000e+06
-2.268207000000000000e+06
-2.312043000000000000e+06
-2.315113000000000000e+06
-2.318843000000000000e+06
-2.338762000000000000e+06
-2.368309000000000000e+06
-2.353792000000000000e+06
-2.322827000000000000e+06
-2.317536000000000000e+06
-2.310786000000000000e+06
-2.309709000000000000e+06
-2.313804000000000000e+06
-2.336929000000000000e+06
-2.355909000000000000e+06
-2.333673000000000000e+06
-2.292746000000000000e+06
-2.284054000000000000e+06
-2.287043000000000000e+06
-2.288167000000000000e+06
-2.234639000000000000e+06
-2.142121000000000000e+06
-2.090903000000000000e+06
-2.243411000000000000e+06
-2.321539000000000000e+06
-2.337923000000000000e+06
-2.346060000000000000e+06
-2.345892000000000000e+06
-2.343353000000000000e+06
-2.343707000000000000e+06
-2.334382000000000000e+06
-2.317693000000000000e+06
-2.314006000000000000e+06
-2.312215000000000000e+06
-2.310796000000000000e+06
-2.245860000000000000e+06
-2.089399000000000000e+06
-2.161896000000000000e+06
-2.314867000000000000e+06
-2.347265000000000000e+06
-2.346678000000000000e+06
-2.340216000000000000e+06
-2.345951000000000000e+06
-2.386185000000000000e+06
-2.386864000000000000e+06
-2.353062000000000000e+06
-2.339569000000000000e+06
-2.335809000000000000e+06
-2.331321000000000000e+06
-2.328836000000000000e+06
-2.321475000000000000e+06
-2.312044000000000000e+06
-2.313202000000000000e+06
-2.305469000000000000e+06
-2.228774000000000000e+06
-2.166381000000000000e+06
-2.301642000000000000e+06
-2.325910000000000000e+06
-2.328244000000000000e+06
-2.333291000000000000e+06
-2.334427000000000000e+06
-2.325098000000000000e+06
-2.315431000000000000e+06
-2.313569000000000000e+06
-2.312740000000000000e+06
-2.311606000000000000e+06
-2.311766000000000000e+06
-2.312554000000000000e+06
-2.309142000000000000e+06
-2.304703000000000000e+06
-2.304485000000000000e+06
-2.306591000000000000e+06
-2.316910000000000000e+06
-2.311116000000000000e+06
-2.302487000000000000e+06
-2.303486000000000000e+06
-2.304922000000000000e+06
-2.310999000000000000e+06
-2.312657000000000000e+06
-2.312522000000000000e+06
-2.313699000000000000e+06
-2.314055000000000000e+06
-2.312534000000000000e+06
-2.308259000000000000e+06
-2.246821000000000000e+06
-2.085570000000000000e+06
-1.853949000000000000e+06
-2.086766000000000000e+06
-2.219414000000000000e+06
-2.302842000000000000e+06
-2.390184000000000000e+06
-2.392072000000000000e+06
-2.381315000000000000e+06
-2.374430000000000000e+06
-2.365457000000000000e+06
-2.357845000000000000e+06
-2.355612000000000000e+06
-2.352883000000000000e+06
-2.351120000000000000e+06
-2.351881000000000000e+06
-2.369465000000000000e+06
-2.397301000000000000e+06
-2.373612000000000000e+06
-2.282944000000000000e+06
-2.308441000000000000e+06
-2.334092000000000000e+06
-2.330622000000000000e+06
-2.327286000000000000e+06
-2.324374000000000000e+06
-2.318604000000000000e+06
-2.316233000000000000e+06
-2.317365000000000000e+06
-2.319143000000000000e+06
-2.318622000000000000e+06
-2.318483000000000000e+06
-2.319609000000000000e+06
-2.319431000000000000e+06
-2.313896000000000000e+06
-2.308725000000000000e+06
-2.307614000000000000e+06
-2.308271000000000000e+06
-2.320715000000000000e+06
-2.360737000000000000e+06
-2.362856000000000000e+06
-2.328477000000000000e+06
-2.321626000000000000e+06
-2.346993000000000000e+06
-2.359342000000000000e+06
-2.333604000000000000e+06
-2.306564000000000000e+06
-2.304757000000000000e+06
-2.310184000000000000e+06
-2.310016000000000000e+06
-2.305988000000000000e+06
-2.302833000000000000e+06
-2.327594000000000000e+06
-2.348449000000000000e+06
-2.335047000000000000e+06
-2.326030000000000000e+06
-2.282949000000000000e+06
-2.263582000000000000e+06
-2.334160000000000000e+06
-2.305946000000000000e+06
-2.249365000000000000e+06
-2.330627000000000000e+06
-2.327832000000000000e+06
-2.293042000000000000e+06
-2.294309000000000000e+06
-2.515995000000000000e+06
-2.951467000000000000e+06
-2.757444000000000000e+06
-2.135236000000000000e+06
-1.929607000000000000e+06
-2.176269000000000000e+06
-2.237037000000000000e+06
-2.250459000000000000e+06
-2.248313000000000000e+06
-2.251825000000000000e+06
-2.251086000000000000e+06
-2.254751000000000000e+06
-2.256769000000000000e+06
-2.262819000000000000e+06
-2.280262000000000000e+06
-2.197919000000000000e+06
-2.057104000000000000e+06
-2.152357000000000000e+06
-2.284266000000000000e+06
-2.304857000000000000e+06
-2.305866000000000000e+06
-2.306766000000000000e+06
-2.307912000000000000e+06
-2.327354000000000000e+06
-2.337029000000000000e+06
-2.331270000000000000e+06
-2.320042000000000000e+06
-2.319569000000000000e+06
-2.319691000000000000e+06
-2.316704000000000000e+06
-2.319908000000000000e+06
-2.318117000000000000e+06
-2.315443000000000000e+06
-2.316738000000000000e+06
-2.281011000000000000e+06
-2.162339000000000000e+06
-2.264493000000000000e+06
-2.325696000000000000e+06
-2.323979000000000000e+06
-2.326711000000000000e+06
-2.326215000000000000e+06
-2.319152000000000000e+06
-2.312947000000000000e+06
-2.305582000000000000e+06
-2.302105000000000000e+06
-2.301226000000000000e+06
-2.311801000000000000e+06
-2.321811000000000000e+06
-2.318068000000000000e+06
-2.308496000000000000e+06
-2.311307000000000000e+06
-2.303603000000000000e+06
-2.288289000000000000e+06
-2.313901000000000000e+06
-2.324390000000000000e+06
-2.354855000000000000e+06
-2.358720000000000000e+06
-2.283357000000000000e+06
-2.255102000000000000e+06
-2.301197000000000000e+06
-2.306308000000000000e+06
-2.306634000000000000e+06
-2.304790000000000000e+06
-2.300947000000000000e+06
-2.246320000000000000e+06
-2.192237000000000000e+06
-2.218939000000000000e+06
-2.266904000000000000e+06
-2.213115000000000000e+06
-2.311014000000000000e+06
-2.346014000000000000e+06
-2.352857000000000000e+06
-2.331521000000000000e+06
-2.324290000000000000e+06
-2.322513000000000000e+06
-2.323529000000000000e+06
-2.319921000000000000e+06
-2.319010000000000000e+06
-2.318267000000000000e+06
-2.317376000000000000e+06
-2.316470000000000000e+06
-2.315195000000000000e+06
-2.324367000000000000e+06
-2.332318000000000000e+06
-2.328044000000000000e+06
-2.326847000000000000e+06
-2.325543000000000000e+06
-2.310927000000000000e+06
-2.305306000000000000e+06
-2.304580000000000000e+06
-2.305088000000000000e+06
-2.305651000000000000e+06
-2.305907000000000000e+06
-2.306574000000000000e+06
-2.304686000000000000e+06
-2.302669000000000000e+06
-2.314941000000000000e+06
-2.314893000000000000e+06
-2.301932000000000000e+06
-2.297134000000000000e+06
-2.306295000000000000e+06
-2.322724000000000000e+06
-2.325177000000000000e+06
-2.317836000000000000e+06
-2.306404000000000000e+06
-2.304410000000000000e+06
-2.302179000000000000e+06
-2.303749000000000000e+06
-2.301673000000000000e+06
-2.298557000000000000e+06
-2.300316000000000000e+06
-2.299930000000000000e+06
-2.300092000000000000e+06
-2.301244000000000000e+06
-2.301122000000000000e+06
-2.300482000000000000e+06
-2.308421000000000000e+06
-2.320087000000000000e+06
-2.273236000000000000e+06
-2.196041000000000000e+06
-2.290529000000000000e+06
-2.321039000000000000e+06
-2.320953000000000000e+06
-2.320829000000000000e+06
-2.506961000000000000e+06
-3.055496000000000000e+06
-3.152616000000000000e+06
-3.082829000000000000e+06
-2.956436000000000000e+06
-2.756382000000000000e+06
-2.273774000000000000e+06
-1.781629000000000000e+06
-1.961415000000000000e+06
-2.076181000000000000e+06
-2.111845000000000000e+06
-2.130704000000000000e+06
-2.141051000000000000e+06
-2.156932000000000000e+06
-2.163427000000000000e+06
-2.174266000000000000e+06
-2.185051000000000000e+06
-2.194907000000000000e+06
-2.186054000000000000e+06
-2.041523000000000000e+06
-2.014431000000000000e+06
-2.164276000000000000e+06
-2.257817000000000000e+06
-2.280091000000000000e+06
-2.284239000000000000e+06
-2.279634000000000000e+06
-2.236590000000000000e+06
-2.140296000000000000e+06
-2.262190000000000000e+06
-2.299537000000000000e+06
-2.295803000000000000e+06
-2.294124000000000000e+06
-2.302746000000000000e+06
-2.336040000000000000e+06
-2.363081000000000000e+06
-2.325002000000000000e+06
-2.244041000000000000e+06
-2.283646000000000000e+06
-2.301566000000000000e+06
-2.302017000000000000e+06
-2.303100000000000000e+06
-2.300905000000000000e+06
-2.298792000000000000e+06
-2.299974000000000000e+06
-2.300848000000000000e+06
-2.301155000000000000e+06
-2.302279000000000000e+06
-2.303010000000000000e+06
-2.303736000000000000e+06
-2.303202000000000000e+06
-2.305009000000000000e+06
-2.302424000000000000e+06
-2.299188000000000000e+06
-2.301547000000000000e+06
-2.305482000000000000e+06
-2.305239000000000000e+06
-2.305541000000000000e+06
-2.305287000000000000e+06
-2.306933000000000000e+06
-2.307495000000000000e+06
-2.311454000000000000e+06
-2.318519000000000000e+06
-2.316534000000000000e+06
-2.311941000000000000e+06
-2.320117000000000000e+06
-2.316439000000000000e+06
-2.307371000000000000e+06
-2.299517000000000000e+06
-2.237923000000000000e+06
-2.123444000000000000e+06
-2.095185000000000000e+06
-2.280156000000000000e+06
-2.333152000000000000e+06
-2.338059000000000000e+06
-2.342715000000000000e+06
-2.346658000000000000e+06
-2.346832000000000000e+06
-2.328269000000000000e+06
-2.320231000000000000e+06
-2.328083000000000000e+06
-2.335787000000000000e+06
-2.332394000000000000e+06
-2.327492000000000000e+06
-2.318747000000000000e+06
-2.316366000000000000e+06
-2.313741000000000000e+06
-2.313986000000000000e+06
-2.313679000000000000e+06
-2.311892000000000000e+06
-2.305241000000000000e+06
-2.303846000000000000e+06
-2.307957000000000000e+06
-2.312047000000000000e+06
-2.315336000000000000e+06
-2.317632000000000000e+06
-2.323237000000000000e+06
-2.322464000000000000e+06
-2.314044000000000000e+06
-2.311119000000000000e+06
-2.307386000000000000e+06
-2.307250000000000000e+06
-2.308123000000000000e+06
-2.304648000000000000e+06
-2.306176000000000000e+06
-2.307554000000000000e+06
-2.304289000000000000e+06
-2.304141000000000000e+06
-2.309036000000000000e+06
-2.305065000000000000e+06
-2.292789000000000000e+06
-2.295569000000000000e+06
-2.301550000000000000e+06
-2.298407000000000000e+06
-2.300781000000000000e+06
-2.300127000000000000e+06
-2.297421000000000000e+06
-2.298185000000000000e+06
-2.298477000000000000e+06
-2.300464000000000000e+06
-2.299482000000000000e+06
-2.239149000000000000e+06
-2.204531000000000000e+06
-2.304716000000000000e+06
-2.323380000000000000e+06
-2.323061000000000000e+06
-2.323251000000000000e+06
-2.640491000000000000e+06
-3.135025000000000000e+06
-3.146216000000000000e+06
-3.076351000000000000e+06
-3.012222000000000000e+06
-2.950576000000000000e+06
-2.767136000000000000e+06
-2.321224000000000000e+06
-1.783233000000000000e+06
-1.696709000000000000e+06
-2.042565000000000000e+06
-2.114712000000000000e+06
-2.054963000000000000e+06
-2.067387000000000000e+06
-2.117644000000000000e+06
-2.135791000000000000e+06
-2.143757000000000000e+06
-2.154928000000000000e+06
-2.167549000000000000e+06
-2.177471000000000000e+06
-2.183354000000000000e+06
-2.075128000000000000e+06
-2.020616000000000000e+06
-2.097967000000000000e+06
-2.229999000000000000e+06
-2.250711000000000000e+06
-2.234566000000000000e+06
-2.259674000000000000e+06
-2.271668000000000000e+06
-2.285979000000000000e+06
-2.288656000000000000e+06
-2.286852000000000000e+06
-2.237237000000000000e+06
-2.137469000000000000e+06
-2.263396000000000000e+06
-2.296036000000000000e+06
-2.288956000000000000e+06
-2.312539000000000000e+06
-2.322274000000000000e+06
-2.317826000000000000e+06
-2.317989000000000000e+06
-2.320497000000000000e+06
-2.306397000000000000e+06
-2.297842000000000000e+06
-2.300037000000000000e+06
-2.301699000000000000e+06
-2.300555000000000000e+06
-2.303121000000000000e+06
-2.304261000000000000e+06
-2.300544000000000000e+06
-2.299115000000000000e+06
-2.298409000000000000e+06
-2.305917000000000000e+06
-2.311667000000000000e+06
-2.301909000000000000e+06
-2.298874000000000000e+06
-2.302571000000000000e+06
-2.302840000000000000e+06
-2.300719000000000000e+06
-2.301352000000000000e+06
-2.307459000000000000e+06
-2.309964000000000000e+06
-2.309853000000000000e+06
-2.305780000000000000e+06
-2.300222000000000000e+06
-2.297396000000000000e+06
-2.295747000000000000e+06
-2.299062000000000000e+06
-2.300132000000000000e+06
-2.297095000000000000e+06
-2.243681000000000000e+06
-2.190044000000000000e+06
-2.227517000000000000e+06
-2.197008000000000000e+06
-2.292887000000000000e+06
-2.333029000000000000e+06
-2.332412000000000000e+06
-2.339763000000000000e+06
-2.336047000000000000e+06
-2.332435000000000000e+06
-2.327454000000000000e+06
-2.321234000000000000e+06
-2.318613000000000000e+06
-2.316389000000000000e+06
-2.315269000000000000e+06
-2.312662000000000000e+06
-2.308919000000000000e+06
-2.311071000000000000e+06
-2.313655000000000000e+06
-2.314237000000000000e+06
-2.314616000000000000e+06
-2.318816000000000000e+06
-2.332322000000000000e+06
-2.331630000000000000e+06
-2.314424000000000000e+06
-2.308157000000000000e+06
-2.305172000000000000e+06
-2.307012000000000000e+06
-2.309392000000000000e+06
-2.308163000000000000e+06
-2.307622000000000000e+06
-2.308712000000000000e+06
-2.307129000000000000e+06
-2.306759000000000000e+06
-2.307578000000000000e+06
-2.306414000000000000e+06
-2.304534000000000000e+06
-2.306219000000000000e+06
-2.303236000000000000e+06
-2.302974000000000000e+06
-2.307179000000000000e+06
-2.314673000000000000e+06
-2.349059000000000000e+06
-2.374291000000000000e+06
-2.319729000000000000e+06
-2.252172000000000000e+06
-2.303479000000000000e+06
-2.313546000000000000e+06
-2.308308000000000000e+06
-2.307277000000000000e+06
-2.307808000000000000e+06
-2.308202000000000000e+06
-2.307155000000000000e+06
-2.271176000000000000e+06
-2.186343000000000000e+06
-2.277262000000000000e+06
-2.309405000000000000e+06
-2.311999000000000000e+06
-2.313577000000000000e+06
-2.459636000000000000e+06
-3.018782000000000000e+06
-3.163081000000000000e+06
-3.095657000000000000e+06
-3.026029000000000000e+06
-2.908979000000000000e+06
-2.736112000000000000e+06
-2.283985000000000000e+06
-1.681519000000000000e+06
-1.839874000000000000e+06
-2.041949000000000000e+06
-2.091458000000000000e+06
-2.113462000000000000e+06
-2.129294000000000000e+06
-2.148419000000000000e+06
-2.159549000000000000e+06
-2.160991000000000000e+06
-2.167514000000000000e+06
-2.192094000000000000e+06
-2.204155000000000000e+06
-2.205604000000000000e+06
-2.205312000000000000e+06
-2.211232000000000000e+06
-2.203394000000000000e+06
-2.064919000000000000e+06
-2.050521000000000000e+06
-2.145919000000000000e+06
-2.261859000000000000e+06
-2.284016000000000000e+06
-2.290637000000000000e+06
-2.297700000000000000e+06
-2.299276000000000000e+06
-2.301601000000000000e+06
-2.297668000000000000e+06
-2.294186000000000000e+06
-2.251544000000000000e+06
-2.143807000000000000e+06
-2.257391000000000000e+06
-2.301733000000000000e+06
-2.306615000000000000e+06
-2.306016000000000000e+06
-2.306230000000000000e+06
-2.305939000000000000e+06
-2.305691000000000000e+06
-2.309265000000000000e+06
-2.319732000000000000e+06
-2.314076000000000000e+06
-2.303649000000000000e+06
-2.303591000000000000e+06
-2.305026000000000000e+06
-2.305319000000000000e+06
-2.305004000000000000e+06
-2.305613000000000000e+06
-2.307027000000000000e+06
-2.306210000000000000e+06
-2.305289000000000000e+06
-2.303279000000000000e+06
-2.300627000000000000e+06
-2.302187000000000000e+06
-2.305238000000000000e+06
-2.306876000000000000e+06
-2.308905000000000000e+06
-2.306802000000000000e+06
-2.301761000000000000e+06
-2.300826000000000000e+06
-2.301139000000000000e+06
-2.300654000000000000e+06
-2.298607000000000000e+06
-2.295057000000000000e+06
-2.233432000000000000e+06
-2.074016000000000000e+06
-2.175532000000000000e+06
-2.319456000000000000e+06
-2.332091000000000000e+06
-2.336759000000000000e+06
-2.350385000000000000e+06
-2.354902000000000000e+06
-2.349914000000000000e+06
-2.346143000000000000e+06
-2.336130000000000000e+06
-2.324657000000000000e+06
-2.321902000000000000e+06
-2.293567000000000000e+06
-2.293661000000000000e+06
-2.322769000000000000e+06
-2.339447000000000000e+06
-2.373450000000000000e+06
-2.361456000000000000e+06
-2.272804000000000000e+06
-2.280211000000000000e+06
-2.312865000000000000e+06
-2.311170000000000000e+06
-2.310125000000000000e+06
-2.308616000000000000e+06
-2.308208000000000000e+06
-2.309394000000000000e+06
-2.309502000000000000e+06
-2.306159000000000000e+06
-2.306792000000000000e+06
-2.308621000000000000e+06
-2.307518000000000000e+06
-2.308126000000000000e+06
-2.311189000000000000e+06
-2.307709000000000000e+06
-2.304059000000000000e+06
-2.303944000000000000e+06
-2.305411000000000000e+06
-2.304640000000000000e+06
-2.306660000000000000e+06
-2.308209000000000000e+06
-2.304111000000000000e+06
-2.306989000000000000e+06
-2.310687000000000000e+06
-2.315736000000000000e+06
-2.321123000000000000e+06
-2.320061000000000000e+06
-2.324546000000000000e+06
-2.318719000000000000e+06
-2.301449000000000000e+06
-2.298892000000000000e+06
-2.291296000000000000e+06
-2.135902000000000000e+06
-1.796254000000000000e+06
-1.452892000000000000e+06
-1.137229000000000000e+06
-4.609020000000000000e+05
-3.024750000000000000e+05
-1.064095000000000000e+06
-8.612380000000000000e+05
-9.456670000000000000e+05
-8.798870000000000000e+05
-4.760360000000000000e+05
-5.755900000000000000e+05
-1.692861000000000000e+06
-2.214377000000000000e+06
-2.687610000000000000e+06
-1.780082000000000000e+06
-1.023114000000000000e+06
-6.478950000000000000e+05
-7.289740000000000000e+05
-1.490118000000000000e+06
-2.441323000000000000e+06
-1.953471000000000000e+06
-1.205289000000000000e+06
-8.695810000000000000e+05
-7.958510000000000000e+05
-7.597760000000000000e+05
-7.529440000000000000e+05
-9.582520000000000000e+05
-9.666310000000000000e+05
-1.068404000000000000e+06
-1.571375000000000000e+06
-3.542404000000000000e+06
-4.154339000000000000e+06
-3.058467000000000000e+06
-3.393635000000000000e+06
-3.676518000000000000e+06
-3.640733000000000000e+06
-3.860449000000000000e+06
-3.575530000000000000e+06
-3.510397000000000000e+06
-3.593619000000000000e+06
-3.282431000000000000e+06
-3.360459000000000000e+06
-3.331541000000000000e+06
-3.049860000000000000e+06
-2.859566000000000000e+06
-2.193427000000000000e+06
-2.653106000000000000e+06
-3.006951000000000000e+06
-2.524030000000000000e+06
-2.373969000000000000e+06
-2.939997000000000000e+06
-2.972236000000000000e+06
-2.798775000000000000e+06
-2.980102000000000000e+06
-2.705059000000000000e+06
-2.772724000000000000e+06
-2.770789000000000000e+06
-2.646796000000000000e+06
-2.849102000000000000e+06
-2.804677000000000000e+06
-2.537715000000000000e+06
-2.683049000000000000e+06
-2.669232000000000000e+06
-2.387378000000000000e+06
-2.489321000000000000e+06
-2.684096000000000000e+06
-2.718420000000000000e+06
-2.719597000000000000e+06
-2.669012000000000000e+06
-2.562566000000000000e+06
-2.566718000000000000e+06
-2.556936000000000000e+06
-2.476699000000000000e+06
-2.321316000000000000e+06
-2.377940000000000000e+06
-2.435171000000000000e+06
-2.303542000000000000e+06
-2.319616000000000000e+06
-2.487858000000000000e+06
-2.513411000000000000e+06
-2.494060000000000000e+06
-2.480917000000000000e+06
-2.383301000000000000e+06
-2.337816000000000000e+06
-2.438821000000000000e+06
-2.407534000000000000e+06
-2.227441000000000000e+06
-2.257701000000000000e+06
-2.422787000000000000e+06
-2.445919000000000000e+06
-2.443972000000000000e+06
-2.431946000000000000e+06
-2.416137000000000000e+06
-2.409478000000000000e+06
-2.411676000000000000e+06
-2.377889000000000000e+06
-2.254529000000000000e+06
-2.353123000000000000e+06
-2.393919000000000000e+06
-2.381246000000000000e+06
-2.373522000000000000e+06
-2.368210000000000000e+06
-2.363348000000000000e+06
-2.360706000000000000e+06
-2.355786000000000000e+06
-2.349549000000000000e+06
-2.348394000000000000e+06
-2.356319000000000000e+06
-2.355059000000000000e+06
-2.336250000000000000e+06
-2.325487000000000000e+06
-2.328680000000000000e+06
-2.342372000000000000e+06
-2.345026000000000000e+06
-2.337684000000000000e+06
-2.324788000000000000e+06
-2.322351000000000000e+06
-2.323397000000000000e+06
-2.323139000000000000e+06
-2.320847000000000000e+06
-2.315604000000000000e+06
-2.313484000000000000e+06
-2.313879000000000000e+06
-2.313566000000000000e+06
-2.312051000000000000e+06
-2.309582000000000000e+06
-2.309680000000000000e+06
-2.317664000000000000e+06
-2.330715000000000000e+06
-2.324604000000000000e+06
-2.315744000000000000e+06
-2.314146000000000000e+06
-2.312847000000000000e+06
-2.311300000000000000e+06
-2.309911000000000000e+06
-2.307754000000000000e+06
-2.310189000000000000e+06
-2.312686000000000000e+06
-2.308703000000000000e+06
-2.234884000000000000e+06
-2.059733000000000000e+06
-2.203044000000000000e+06
-2.332953000000000000e+06
-2.343379000000000000e+06
-2.341199000000000000e+06
-2.339192000000000000e+06
-2.342428000000000000e+06
-2.338706000000000000e+06
-2.337124000000000000e+06
-2.296891000000000000e+06
-2.134411000000000000e+06
-2.153785000000000000e+06
-2.319811000000000000e+06
-2.356316000000000000e+06
-2.355829000000000000e+06
-2.348516000000000000e+06
-2.345276000000000000e+06
-2.349755000000000000e+06
-2.242508000000000000e+06
-2.225769000000000000e+06
-2.350408000000000000e+06
-2.365607000000000000e+06
-2.360989000000000000e+06
-2.355205000000000000e+06
-2.348886000000000000e+06
-2.311265000000000000e+06
-2.309859000000000000e+06
-2.328225000000000000e+06
-2.354486000000000000e+06
-2.383021000000000000e+06
-2.362222000000000000e+06
-2.273862000000000000e+06
-2.298121000000000000e+06
-2.318170000000000000e+06
-2.315232000000000000e+06
-2.311565000000000000e+06
-2.310049000000000000e+06
-2.311822000000000000e+06
-2.312065000000000000e+06
-2.313249000000000000e+06
-2.315519000000000000e+06
-2.312469000000000000e+06
-2.310858000000000000e+06
-2.310039000000000000e+06
-2.309899000000000000e+06
-2.308383000000000000e+06
-2.313449000000000000e+06
-2.317342000000000000e+06
-2.317634000000000000e+06
-2.316809000000000000e+06
-2.320676000000000000e+06
-2.319712000000000000e+06
-2.314207000000000000e+06
-2.310891000000000000e+06
-2.309156000000000000e+06
-2.307916000000000000e+06
-2.314683000000000000e+06
-2.319481000000000000e+06
-2.315939000000000000e+06
-2.320981000000000000e+06
-2.318557000000000000e+06
-2.307838000000000000e+06
-2.302743000000000000e+06
-2.256806000000000000e+06
-2.199189000000000000e+06
-2.228487000000000000e+06
-2.311642000000000000e+06
-2.337582000000000000e+06
-2.336189000000000000e+06
-2.320677000000000000e+06
-2.183471000000000000e+06
-2.233330000000000000e+06
-2.316001000000000000e+06
-2.325754000000000000e+06
-2.332066000000000000e+06
-2.326706000000000000e+06
-2.334084000000000000e+06
-2.338457000000000000e+06
-2.325991000000000000e+06
-2.327472000000000000e+06
-2.322097000000000000e+06
-2.293436000000000000e+06
-2.136207000000000000e+06
-2.109146000000000000e+06
-2.278713000000000000e+06
-2.334106000000000000e+06
-2.348874000000000000e+06
-2.350086000000000000e+06
-2.342461000000000000e+06
-2.312027000000000000e+06
-2.201877000000000000e+06
-2.300729000000000000e+06
-2.342848000000000000e+06
-2.340438000000000000e+06
-2.336916000000000000e+06
-2.331594000000000000e+06
-2.328886000000000000e+06
-2.329122000000000000e+06
-2.330913000000000000e+06
-2.328912000000000000e+06
-2.325982000000000000e+06
-2.325332000000000000e+06
-2.327046000000000000e+06
-2.325061000000000000e+06
-2.319868000000000000e+06
-2.315251000000000000e+06
-2.314063000000000000e+06
-2.314172000000000000e+06
-2.315667000000000000e+06
-2.319822000000000000e+06
-2.313469000000000000e+06
-2.306681000000000000e+06
-2.306309000000000000e+06
-2.305585000000000000e+06
-2.305738000000000000e+06
-2.304084000000000000e+06
-2.305177000000000000e+06
-2.306270000000000000e+06
-2.305708000000000000e+06
-2.309114000000000000e+06
-2.311816000000000000e+06
-2.311122000000000000e+06
-2.311286000000000000e+06
-2.311604000000000000e+06
-2.309686000000000000e+06
-2.306422000000000000e+06
-2.304353000000000000e+06
-2.238699000000000000e+06
-2.076470000000000000e+06
-2.191732000000000000e+06
-2.341215000000000000e+06
-2.387879000000000000e+06
-2.399412000000000000e+06
-2.340717000000000000e+06
-2.281032000000000000e+06
-2.326540000000000000e+06
-2.328852000000000000e+06
-2.323452000000000000e+06
-2.321386000000000000e+06
-2.319491000000000000e+06
-2.318750000000000000e+06
-2.318306000000000000e+06
-2.316662000000000000e+06
-2.299648000000000000e+06
-2.141356000000000000e+06
-2.068005000000000000e+06
-2.224971000000000000e+06
-2.344662000000000000e+06
-2.350558000000000000e+06
-2.346499000000000000e+06
-2.353881000000000000e+06
-2.354308000000000000e+06
-2.359494000000000000e+06
-2.349619000000000000e+06
-2.229167000000000000e+06
-2.196359000000000000e+06
-2.320611000000000000e+06
-2.344041000000000000e+06
-2.344877000000000000e+06
-2.350768000000000000e+06
-2.352629000000000000e+06
-2.351290000000000000e+06
-2.347429000000000000e+06
-2.332582000000000000e+06
-2.322225000000000000e+06
-2.318291000000000000e+06
-2.321448000000000000e+06
-2.325046000000000000e+06
-2.322314000000000000e+06
-2.319146000000000000e+06
-2.310967000000000000e+06
-2.310522000000000000e+06
-2.321952000000000000e+06
-2.324492000000000000e+06
-2.311021000000000000e+06
-2.302931000000000000e+06
-2.305232000000000000e+06
-2.316167000000000000e+06
-2.319465000000000000e+06
-2.320579000000000000e+06
-2.320271000000000000e+06
-2.317191000000000000e+06
-2.313907000000000000e+06
-2.310608000000000000e+06
-2.310473000000000000e+06
-2.306323000000000000e+06
-2.304110000000000000e+06
-2.303626000000000000e+06
-2.304764000000000000e+06
-2.307115000000000000e+06
-2.303382000000000000e+06
-2.244728000000000000e+06
-2.190641000000000000e+06
-2.262956000000000000e+06
-2.202174000000000000e+06
-2.230283000000000000e+06
-2.323917000000000000e+06
-2.335345000000000000e+06
-2.344016000000000000e+06
-2.331691000000000000e+06
-2.330662000000000000e+06
-2.339520000000000000e+06
-2.333074000000000000e+06
-2.329178000000000000e+06
-2.325947000000000000e+06
-2.320469000000000000e+06
-2.213658000000000000e+06
-2.081050000000000000e+06
-1.839036000000000000e+06
-1.752881000000000000e+06
-2.122424000000000000e+06
-2.327956000000000000e+06
-2.428216000000000000e+06
-2.401819000000000000e+06
-2.272116000000000000e+06
-2.358156000000000000e+06
-2.409451000000000000e+06
-2.406066000000000000e+06
-2.403232000000000000e+06
-2.398431000000000000e+06
-2.384162000000000000e+06
-2.378062000000000000e+06
-2.376126000000000000e+06
-2.372792000000000000e+06
-2.365210000000000000e+06
-2.356789000000000000e+06
-2.352359000000000000e+06
-2.341480000000000000e+06
-2.339096000000000000e+06
-2.338322000000000000e+06
-2.306074000000000000e+06
-2.325661000000000000e+06
-2.343279000000000000e+06
-2.362985000000000000e+06
-2.395256000000000000e+06
-2.361157000000000000e+06
-2.280231000000000000e+06
-2.316531000000000000e+06
-2.327419000000000000e+06
-2.324649000000000000e+06
-2.323594000000000000e+06
-2.325381000000000000e+06
-2.328417000000000000e+06
-2.325679000000000000e+06
-2.322859000000000000e+06
-2.319918000000000000e+06
-2.316526000000000000e+06
-2.313726000000000000e+06
-2.311871000000000000e+06
-2.309568000000000000e+06
-2.310394000000000000e+06
-2.309042000000000000e+06
-2.308307000000000000e+06
-2.309269000000000000e+06
-2.307414000000000000e+06
-2.252490000000000000e+06
-2.156884000000000000e+06
-2.108065000000000000e+06
-2.266591000000000000e+06
-2.344981000000000000e+06
-2.355354000000000000e+06
-2.356740000000000000e+06
-2.353476000000000000e+06
-2.351517000000000000e+06
-2.347666000000000000e+06
-2.320003000000000000e+06
-2.142133000000000000e+06
-2.079095000000000000e+06
-2.011767000000000000e+06
-2.127836000000000000e+06
-2.220197000000000000e+06
-1.694303000000000000e+06
-2.125781000000000000e+06
-2.234532000000000000e+06
-2.181017000000000000e+06
-2.440712000000000000e+06
-2.415965000000000000e+06
-2.133227000000000000e+06
-2.235537000000000000e+06
-2.443121000000000000e+06
-2.464802000000000000e+06
-2.450604000000000000e+06
-2.447054000000000000e+06
-2.439456000000000000e+06
-2.431186000000000000e+06
-2.416255000000000000e+06
-2.324331000000000000e+06
-2.278370000000000000e+06
-2.380652000000000000e+06
-2.388672000000000000e+06
-2.385776000000000000e+06
-2.390216000000000000e+06
-2.417689000000000000e+06
-2.441316000000000000e+06
-2.417535000000000000e+06
-2.372858000000000000e+06
-2.358256000000000000e+06
-2.365651000000000000e+06
-2.398338000000000000e+06
-2.401477000000000000e+06
-2.379955000000000000e+06
-2.376838000000000000e+06
-2.365374000000000000e+06
-2.360233000000000000e+06
-2.362617000000000000e+06
-2.347161000000000000e+06
-2.351373000000000000e+06
-2.344621000000000000e+06
-2.311420000000000000e+06
-2.304478000000000000e+06
-2.327667000000000000e+06
-2.348456000000000000e+06
-2.330163000000000000e+06
-2.298500000000000000e+06
-2.278949000000000000e+06
-2.274852000000000000e+06
-2.279452000000000000e+06
-2.281472000000000000e+06
-2.282252000000000000e+06
-2.221759000000000000e+06
-2.065085000000000000e+06
-2.137644000000000000e+06
-2.303117000000000000e+06
-2.326586000000000000e+06
-2.339485000000000000e+06
-2.337525000000000000e+06
-2.322920000000000000e+06
-2.322370000000000000e+06
-2.320801000000000000e+06
-2.321043000000000000e+06
-2.317341000000000000e+06
-2.314154000000000000e+06
-2.312753000000000000e+06
-2.316380000000000000e+06
-2.321328000000000000e+06
-2.321154000000000000e+06
-2.358217000000000000e+06
-2.367073000000000000e+06
-2.284778000000000000e+06
-2.268286000000000000e+06
-2.310079000000000000e+06
-2.311479000000000000e+06
-2.308222000000000000e+06
-2.307401000000000000e+06
-2.305847000000000000e+06
-2.304684000000000000e+06
-2.306196000000000000e+06
-2.306439000000000000e+06
-2.306893000000000000e+06
-2.310040000000000000e+06
-2.300069000000000000e+06
-2.298377000000000000e+06
-2.298702000000000000e+06
-2.302960000000000000e+06
-2.313406000000000000e+06
-2.213540000000000000e+06
-2.125643000000000000e+06
-2.283755000000000000e+06
-2.329407000000000000e+06
-2.084687000000000000e+06
-1.623255000000000000e+06
-1.829519000000000000e+06
-2.301582000000000000e+06
-2.440038000000000000e+06
-2.443600000000000000e+06
-2.429876000000000000e+06
-2.421777000000000000e+06
-2.414808000000000000e+06
-2.393919000000000000e+06
-2.380176000000000000e+06
-2.411385000000000000e+06
-2.428072000000000000e+06
-2.406995000000000000e+06
-2.407527000000000000e+06
-2.401032000000000000e+06
-2.381844000000000000e+06
-2.387362000000000000e+06
-2.365042000000000000e+06
-2.325914000000000000e+06
-2.321907000000000000e+06
-2.313341000000000000e+06
-2.311925000000000000e+06
-2.321935000000000000e+06
-2.267923000000000000e+06
-2.226483000000000000e+06
-2.298556000000000000e+06
-2.363229000000000000e+06
-2.371642000000000000e+06
-2.372472000000000000e+06
-2.228358000000000000e+06
-2.212617000000000000e+06
-2.313475000000000000e+06
-2.320289000000000000e+06
-2.318660000000000000e+06
-2.288093000000000000e+06
-2.168341000000000000e+06
-2.279484000000000000e+06
-2.330010000000000000e+06
-2.337122000000000000e+06
-2.329697000000000000e+06
-2.321630000000000000e+06
-2.328874000000000000e+06
-2.339569000000000000e+06
-2.346021000000000000e+06
-2.378332000000000000e+06
-2.370506000000000000e+06
-2.357929000000000000e+06
-2.364657000000000000e+06
-2.350138000000000000e+06
-2.318518000000000000e+06
-2.311610000000000000e+06
-2.306081000000000000e+06
-2.307722000000000000e+06
-2.310171000000000000e+06
-2.329529000000000000e+06
-2.351886000000000000e+06
-2.334126000000000000e+06
-2.305454000000000000e+06
-2.301570000000000000e+06
-2.291421000000000000e+06
-2.291277000000000000e+06
-2.291496000000000000e+06
-2.297955000000000000e+06
-2.307781000000000000e+06
-2.313936000000000000e+06
-2.340354000000000000e+06
-2.348207000000000000e+06
-2.320716000000000000e+06
-2.300829000000000000e+06
-2.303172000000000000e+06
-2.336556000000000000e+06
-2.354528000000000000e+06
-2.336427000000000000e+06
-2.334179000000000000e+06
-2.328316000000000000e+06
-2.289551000000000000e+06
-2.321446000000000000e+06
-2.320085000000000000e+06
-2.292487000000000000e+06
-2.302355000000000000e+06
-2.338513000000000000e+06
-2.333190000000000000e+06
-2.272797000000000000e+06
-2.301919000000000000e+06
-2.301407000000000000e+06
-2.175927000000000000e+06
-2.161724000000000000e+06
-2.213376000000000000e+06
-2.116174000000000000e+06
-1.939294000000000000e+06
-2.156048000000000000e+06
-2.312207000000000000e+06
-2.343602000000000000e+06
-2.356360000000000000e+06
-2.350847000000000000e+06
-2.343189000000000000e+06
-2.330561000000000000e+06
-2.307636000000000000e+06
-2.157486000000000000e+06
-2.175843000000000000e+06
-2.273481000000000000e+06
-2.360464000000000000e+06
-2.368502000000000000e+06
-2.362713000000000000e+06
-2.359343000000000000e+06
-2.350934000000000000e+06
-2.349311000000000000e+06
-2.355956000000000000e+06
-2.379440000000000000e+06
-2.394049000000000000e+06
-2.378712000000000000e+06
-2.375041000000000000e+06
-2.372163000000000000e+06
-2.352794000000000000e+06
-2.355021000000000000e+06
-2.360317000000000000e+06
-2.349032000000000000e+06
-2.351922000000000000e+06
-2.344879000000000000e+06
-2.312802000000000000e+06
-2.305959000000000000e+06
-2.331687000000000000e+06
-2.342567000000000000e+06
-2.314652000000000000e+06
-2.297246000000000000e+06
-2.286954000000000000e+06
-2.280605000000000000e+06
-2.321452000000000000e+06
-2.341430000000000000e+06
-2.211766000000000000e+06
-2.183328000000000000e+06
-2.335686000000000000e+06
-2.335434000000000000e+06
-2.294857000000000000e+06
-2.288497000000000000e+06
-2.289217000000000000e+06
-2.293321000000000000e+06
-2.295482000000000000e+06
-2.296978000000000000e+06
-2.302986000000000000e+06
-2.309767000000000000e+06
-2.305201000000000000e+06
-2.296601000000000000e+06
-2.295387000000000000e+06
-2.296214000000000000e+06
-2.295226000000000000e+06
-2.297178000000000000e+06
-2.299121000000000000e+06
-2.299971000000000000e+06
-2.299343000000000000e+06
-2.295132000000000000e+06
-2.236340000000000000e+06
-2.080017000000000000e+06
-2.160628000000000000e+06
-2.312619000000000000e+06
-2.329434000000000000e+06
-2.328796000000000000e+06
-2.327276000000000000e+06
-2.331591000000000000e+06
-2.336784000000000000e+06
-2.325776000000000000e+06
-2.325716000000000000e+06
-2.326111000000000000e+06
-2.325379000000000000e+06
-2.322503000000000000e+06
-2.319922000000000000e+06
-2.319744000000000000e+06
-2.315531000000000000e+06
-2.309928000000000000e+06
-2.309642000000000000e+06
-2.309024000000000000e+06
-2.308438000000000000e+06
-2.308819000000000000e+06
-2.312270000000000000e+06
-2.312247000000000000e+06
-2.309771000000000000e+06
-2.312467000000000000e+06
-2.316441000000000000e+06
-2.316220000000000000e+06
-2.316046000000000000e+06
-2.327441000000000000e+06
-2.363366000000000000e+06
-2.361554000000000000e+06
-2.276016000000000000e+06
-2.275336000000000000e+06
-2.307980000000000000e+06
-2.301962000000000000e+06
-2.298677000000000000e+06
-2.300347000000000000e+06
-2.301022000000000000e+06
-2.300261000000000000e+06
-2.300743000000000000e+06
-2.301440000000000000e+06
-2.302066000000000000e+06
-2.300914000000000000e+06
-2.298807000000000000e+06
-2.301873000000000000e+06
-2.302544000000000000e+06
-2.300678000000000000e+06
-2.305689000000000000e+06
-2.310708000000000000e+06
-2.306152000000000000e+06
-2.300600000000000000e+06
-2.215059000000000000e+06
-2.221751000000000000e+06
-2.311146000000000000e+06
-2.323492000000000000e+06
-2.324773000000000000e+06
-2.348525000000000000e+06
-2.717323000000000000e+06
-3.153371000000000000e+06
-3.139591000000000000e+06
-3.071043000000000000e+06
-3.008264000000000000e+06
-2.948567000000000000e+06
-2.838052000000000000e+06
-2.668569000000000000e+06
-2.227036000000000000e+06
-1.957641000000000000e+06
-2.001520000000000000e+06
-2.189320000000000000e+06
-4.194304000000000000e+06
-2.277389000000000000e+06
-2.280877000000000000e+06
-2.288642000000000000e+06
-2.295702000000000000e+06
-2.299421000000000000e+06
-5.419591000000000000e+06
-2.302134000000000000e+06
-2.299561000000000000e+06
-2.633278000000000000e+06
-2.907550000000000000e+06
-2.673802000000000000e+06
-2.517339000000000000e+06
-2.433159000000000000e+06
-2.388409000000000000e+06
-2.355595000000000000e+06
-2.335467000000000000e+06
-2.326157000000000000e+06
-2.319417000000000000e+06
-2.313281000000000000e+06
-2.309281000000000000e+06
-2.307975000000000000e+06
-2.308717000000000000e+06
-2.308402000000000000e+06
-2.307783000000000000e+06
-2.306564000000000000e+06
-2.309024000000000000e+06
-2.305071000000000000e+06
-2.305051000000000000e+06
-2.306183000000000000e+06
-2.307969000000000000e+06
-2.306584000000000000e+06
-2.304283000000000000e+06
-2.306121000000000000e+06
-2.305262000000000000e+06
-2.307319000000000000e+06
-2.304487000000000000e+06
-2.302449000000000000e+06
-2.305547000000000000e+06
-2.306546000000000000e+06
-2.307836000000000000e+06
-1.929949000000000000e+06
-2.514469000000000000e+06
-2.432052000000000000e+06
-2.376919000000000000e+06
-2.344187000000000000e+06
-2.330512000000000000e+06
-2.322171000000000000e+06
-2.313460000000000000e+06
-2.312836000000000000e+06
-2.311257000000000000e+06
-2.307338000000000000e+06
-2.309113000000000000e+06
-2.305220000000000000e+06
-2.307144000000000000e+06
-2.308076000000000000e+06
-2.305272000000000000e+06
-1.512791000000000000e+06
-2.000719000000000000e+06
-2.114989000000000000e+06
-2.185884000000000000e+06
-2.249007000000000000e+06
-2.260521000000000000e+06
-2.268523000000000000e+06
-2.153627000000000000e+06
-2.900566000000000000e+06
-2.876882000000000000e+06
-2.627793000000000000e+06
-2.501067000000000000e+06
-2.427042000000000000e+06
-2.375859000000000000e+06
-2.344941000000000000e+06
-1.499791000000000000e+06
-2.595599000000000000e+06
-2.477057000000000000e+06
-2.411208000000000000e+06
-2.363051000000000000e+06
-2.341337000000000000e+06
-2.329101000000000000e+06
-2.318343000000000000e+06
-2.312981000000000000e+06
-2.309520000000000000e+06
-2.308289000000000000e+06
-2.306816000000000000e+06
-2.162688000000000000e+06
-2.307204000000000000e+06
-2.307167000000000000e+06
0.000000000000000000e+00
-2.308287000000000000e+06
-2.308684000000000000e+06
6.710000000000000000e+02
1.966080000000000000e+06
-2.311616000000000000e+06
-2.379202000000000000e+06
-2.461394000000000000e+06
-2.463076000000000000e+06
-2.450781000000000000e+06
-2.438176000000000000e+06
-2.426967000000000000e+06
-2.417306000000000000e+06
-2.406056000000000000e+06
-2.398891000000000000e+06
-2.392744000000000000e+06
-2.386006000000000000e+06
-2.380119000000000000e+06
-2.374727000000000000e+06
-2.369249000000000000e+06
-2.364026000000000000e+06
-2.359471000000000000e+06
-2.354901000000000000e+06
-2.349856000000000000e+06
-2.347488000000000000e+06
-2.345318000000000000e+06
-2.342558000000000000e+06
-2.340191000000000000e+06
-2.337401000000000000e+06
-2.334914000000000000e+06
-2.333124000000000000e+06
-2.330157000000000000e+06
-2.328497000000000000e+06
-2.325368000000000000e+06
-2.321575000000000000e+06
-2.260159000000000000e+06
-1.760905000000000000e+06
-1.557731000000000000e+06
-1.927508000000000000e+06
-2.124341000000000000e+06
-2.169561000000000000e+06
-2.235396000000000000e+06
-2.262285000000000000e+06
-2.273034000000000000e+06
-2.289442000000000000e+06
-2.297592000000000000e+06
-2.299575000000000000e+06
-2.293119000000000000e+06
-2.299309000000000000e+06
-2.311617000000000000e+06
-2.923297000000000000e+06
-2.683735000000000000e+06
-2.539572000000000000e+06
-2.439664000000000000e+06
-2.387947000000000000e+06
-2.356554000000000000e+06
-2.332509000000000000e+06
-2.323929000000000000e+06
-2.317679000000000000e+06
-2.310642000000000000e+06
-2.312260000000000000e+06
-2.309177000000000000e+06
-2.306869000000000000e+06
-2.307312000000000000e+06
-2.306176000000000000e+06
-2.307270000000000000e+06
-2.308835000000000000e+06
-5.242880000000000000e+05
-2.307177000000000000e+06
-2.306869000000000000e+06
-2.306215000000000000e+06
-2.306164000000000000e+06
-2.306572000000000000e+06
5.462000000000000000e+03
-2.307427000000000000e+06
-2.304501000000000000e+06
3.581811000000000000e+06
-2.106151000000000000e+06
-2.189066000000000000e+06
-2.492174000000000000e+06
-2.418155000000000000e+06
-2.371809000000000000e+06
-2.344486000000000000e+06
-2.330341000000000000e+06
-2.317626000000000000e+06
-2.316142000000000000e+06
-2.310124000000000000e+06
-2.309767000000000000e+06
-2.306681000000000000e+06
-2.304431000000000000e+06
-2.305970000000000000e+06
-2.308283000000000000e+06
-2.305561000000000000e+06
-2.306249000000000000e+06
-2.307201000000000000e+06
-2.305000000000000000e+06
-2.306973000000000000e+06
-2.304469000000000000e+06
-1.467006000000000000e+06
-1.877731000000000000e+06
-2.177971000000000000e+06
-2.233310000000000000e+06
-2.275771000000000000e+06
-2.275984000000000000e+06
-2.265451000000000000e+06
-2.295860000000000000e+06
-2.299116000000000000e+06
-2.294955000000000000e+06
-2.284053000000000000e+06
-2.316343000000000000e+06
-2.336167000000000000e+06
-2.307154000000000000e+06
-3.064994000000000000e+06
-2.768981000000000000e+06
-2.589188000000000000e+06
-2.468426000000000000e+06
-2.403706000000000000e+06
-2.368470000000000000e+06
-2.342495000000000000e+06
-2.326682000000000000e+06
-2.319661000000000000e+06
-2.314848000000000000e+06
-2.312027000000000000e+06
-2.308600000000000000e+06
-2.815880000000000000e+05
-2.314449000000000000e+06
-2.399369000000000000e+06
-2.467465000000000000e+06
-2.461761000000000000e+06
-2.446732000000000000e+06
-2.434779000000000000e+06
-2.426069000000000000e+06
-2.416897000000000000e+06
-2.408016000000000000e+06
-2.399977000000000000e+06
-2.392286000000000000e+06
-2.385778000000000000e+06
-2.379449000000000000e+06
-2.374222000000000000e+06
-2.367017000000000000e+06
-2.362980000000000000e+06
-2.360040000000000000e+06
-2.356014000000000000e+06
-2.352654000000000000e+06
-2.348390000000000000e+06
-2.344471000000000000e+06
-2.342814000000000000e+06
-2.339839000000000000e+06
-2.337109000000000000e+06
-2.332979000000000000e+06
-2.330070000000000000e+06
-2.330137000000000000e+06
-2.329054000000000000e+06
-2.326892000000000000e+06
-2.326102000000000000e+06
-2.325374000000000000e+06
-2.322851000000000000e+06
-2.322440000000000000e+06
-2.320841000000000000e+06
-2.317749000000000000e+06
-2.316787000000000000e+06
-2.317827000000000000e+06
-2.313647000000000000e+06
-2.255111000000000000e+06
-2.155902000000000000e+06
-1.801732000000000000e+06
-1.346249000000000000e+06
-1.425007000000000000e+06
-1.568222000000000000e+06
-1.641807000000000000e+06
-1.698515000000000000e+06
-1.752341000000000000e+06
-1.802534000000000000e+06
-1.846849000000000000e+06
-1.885232000000000000e+06
-1.916854000000000000e+06
-1.936892000000000000e+06
-1.956152000000000000e+06
-1.975018000000000000e+06
-1.991092000000000000e+06
-1.893018000000000000e+06
-1.828894000000000000e+06
-1.914818000000000000e+06
-2.105931000000000000e+06
-2.149654000000000000e+06
-2.166368000000000000e+06
-2.174264000000000000e+06
-2.175436000000000000e+06
-2.180711000000000000e+06
-2.189109000000000000e+06
-2.196732000000000000e+06
-2.208334000000000000e+06
-2.235577000000000000e+06
-2.239967000000000000e+06
-2.238483000000000000e+06
-2.245639000000000000e+06
-2.246474000000000000e+06
-2.240101000000000000e+06
-2.243521000000000000e+06
-2.251924000000000000e+06
-2.227456000000000000e+06
-2.139019000000000000e+06
-2.250190000000000000e+06
-2.278870000000000000e+06
-2.283739000000000000e+06
-2.293399000000000000e+06
-2.299117000000000000e+06
-2.286952000000000000e+06
-2.282717000000000000e+06
-2.285650000000000000e+06
-2.291589000000000000e+06
-2.295098000000000000e+06
-2.292025000000000000e+06
-2.291624000000000000e+06
-2.294169000000000000e+06
-2.294589000000000000e+06
-2.295104000000000000e+06
-2.295508000000000000e+06
-2.296082000000000000e+06
-2.295392000000000000e+06
-2.295252000000000000e+06
-2.297516000000000000e+06
-2.298981000000000000e+06
-2.299463000000000000e+06
-2.298791000000000000e+06
-2.298686000000000000e+06
-2.297842000000000000e+06
-2.232203000000000000e+06
-2.065785000000000000e+06
-2.179324000000000000e+06
-2.320591000000000000e+06
-2.335376000000000000e+06
-2.340821000000000000e+06
-2.335378000000000000e+06
-2.332322000000000000e+06
-2.316256000000000000e+06
-2.185069000000000000e+06
-2.074796000000000000e+06
-2.209934000000000000e+06
-2.344791000000000000e+06
-2.363224000000000000e+06
-2.360326000000000000e+06
-2.348112000000000000e+06
-2.299871000000000000e+06
-2.205816000000000000e+06
-2.229867000000000000e+06
-2.379583000000000000e+06
-2.417589000000000000e+06
-2.361280000000000000e+06
-2.289185000000000000e+06
-2.331338000000000000e+06
-2.339937000000000000e+06
-2.337254000000000000e+06
-2.333985000000000000e+06
-2.333068000000000000e+06
-2.331293000000000000e+06
-2.329778000000000000e+06
-2.327532000000000000e+06
-2.324619000000000000e+06
-2.320714000000000000e+06
-2.318285000000000000e+06
-2.319919000000000000e+06
-2.318984000000000000e+06
-2.316714000000000000e+06
-2.315057000000000000e+06
-2.316887000000000000e+06
-2.327614000000000000e+06
-2.322006000000000000e+06
-2.320339000000000000e+06
-2.310076000000000000e+06
-2.306844000000000000e+06
-2.308473000000000000e+06
-2.311138000000000000e+06
-2.316732000000000000e+06
-2.324249000000000000e+06
-2.323772000000000000e+06
-2.320869000000000000e+06
-2.325692000000000000e+06
-2.314912000000000000e+06
-2.289145000000000000e+06
-2.289637000000000000e+06
-2.304816000000000000e+06
-2.306357000000000000e+06
-2.306678000000000000e+06
-2.306959000000000000e+06
-2.306311000000000000e+06
-2.306317000000000000e+06
-2.305964000000000000e+06
-2.302491000000000000e+06
-2.301196000000000000e+06
-2.293589000000000000e+06
-2.238975000000000000e+06
-2.152970000000000000e+06
-2.111914000000000000e+06
-2.272105000000000000e+06
-2.338126000000000000e+06
-2.343994000000000000e+06
-2.342933000000000000e+06
-2.341541000000000000e+06
-2.329711000000000000e+06
-2.206535000000000000e+06
-2.081835000000000000e+06
-2.186837000000000000e+06
-2.340349000000000000e+06
-2.363479000000000000e+06
-2.366212000000000000e+06
-2.361243000000000000e+06
-2.353317000000000000e+06
-2.360924000000000000e+06
-2.262083000000000000e+06
-2.222756000000000000e+06
-2.333093000000000000e+06
-2.345227000000000000e+06
-2.343872000000000000e+06
-2.341193000000000000e+06
-2.338344000000000000e+06
-2.335867000000000000e+06
-2.333160000000000000e+06
-2.329738000000000000e+06
-2.327001000000000000e+06
-2.324894000000000000e+06
-2.326349000000000000e+06
-2.325589000000000000e+06
-2.324574000000000000e+06
-2.322379000000000000e+06
-2.321316000000000000e+06
-2.320219000000000000e+06
-2.319097000000000000e+06
-2.317846000000000000e+06
-2.315341000000000000e+06
-2.312258000000000000e+06
-2.314389000000000000e+06
-2.314755000000000000e+06
-2.312629000000000000e+06
-2.308795000000000000e+06
-2.306569000000000000e+06
-2.307397000000000000e+06
-2.309832000000000000e+06
-2.311732000000000000e+06
-2.311259000000000000e+06
-2.309529000000000000e+06
-2.310978000000000000e+06
-2.310909000000000000e+06
-2.310851000000000000e+06
-2.310809000000000000e+06
-2.310651000000000000e+06
-2.309606000000000000e+06
-2.308892000000000000e+06
-2.323858000000000000e+06
-2.362812000000000000e+06
-2.372399000000000000e+06
-2.340852000000000000e+06
-2.316289000000000000e+06
-2.307249000000000000e+06
-2.301554000000000000e+06
-2.229521000000000000e+06
-1.996651000000000000e+06
-1.811226000000000000e+06
-2.066351000000000000e+06
-2.336247000000000000e+06
-2.384859000000000000e+06
-2.384763000000000000e+06
-2.377804000000000000e+06
-2.364951000000000000e+06
-2.245059000000000000e+06
-2.107629000000000000e+06
-2.221127000000000000e+06
-2.369372000000000000e+06
-2.391032000000000000e+06
-2.383414000000000000e+06
-2.372617000000000000e+06
-2.358334000000000000e+06
-2.244223000000000000e+06
-2.232056000000000000e+06
-2.350331000000000000e+06
-2.363030000000000000e+06
-2.361312000000000000e+06
-2.367371000000000000e+06
-2.367954000000000000e+06
-2.365498000000000000e+06
-2.358396000000000000e+06
-2.343007000000000000e+06
-2.336049000000000000e+06
-2.331287000000000000e+06
-2.324426000000000000e+06
-2.320917000000000000e+06
-2.319575000000000000e+06
-2.318511000000000000e+06
-2.318036000000000000e+06
-2.318142000000000000e+06
-2.319332000000000000e+06
-2.319513000000000000e+06
-2.314482000000000000e+06
-2.313636000000000000e+06
-2.315326000000000000e+06
-2.315863000000000000e+06
-2.311787000000000000e+06
-2.310068000000000000e+06
-2.310017000000000000e+06
-2.311691000000000000e+06
-2.316322000000000000e+06
-2.314556000000000000e+06
-2.308613000000000000e+06
-2.307750000000000000e+06
-2.307282000000000000e+06
-2.306289000000000000e+06
-2.307006000000000000e+06
-2.307476000000000000e+06
-2.307212000000000000e+06
-2.306356000000000000e+06
-2.316189000000000000e+06
-2.324171000000000000e+06
-2.316425000000000000e+06
-2.313172000000000000e+06
-2.311896000000000000e+06
-2.306807000000000000e+06
-2.303002000000000000e+06
-2.303320000000000000e+06
-2.301431000000000000e+06
-2.238714000000000000e+06
-2.075436000000000000e+06
-2.154122000000000000e+06
-2.322389000000000000e+06
-2.345604000000000000e+06
-2.352844000000000000e+06
-2.348654000000000000e+06
-2.345424000000000000e+06
-2.334646000000000000e+06
-2.321588000000000000e+06
-2.169419000000000000e+06
-2.081345000000000000e+06
-2.256450000000000000e+06
-2.350572000000000000e+06
-2.350637000000000000e+06
-2.346437000000000000e+06
-2.342207000000000000e+06
-2.345127000000000000e+06
-2.353577000000000000e+06
-2.350186000000000000e+06
-2.334951000000000000e+06
-2.217416000000000000e+06
-2.204647000000000000e+06
-2.329827000000000000e+06
-2.345762000000000000e+06
-2.343860000000000000e+06
-2.339524000000000000e+06
-2.338953000000000000e+06
-2.327287000000000000e+06
-2.302773000000000000e+06
-2.328596000000000000e+06
-2.336616000000000000e+06
-2.369436000000000000e+06
-2.390041000000000000e+06
-2.323992000000000000e+06
-2.275057000000000000e+06
-2.319588000000000000e+06
-2.321679000000000000e+06
-2.319607000000000000e+06
-2.319044000000000000e+06
-2.317492000000000000e+06
-2.315821000000000000e+06
-2.316303000000000000e+06
-2.316337000000000000e+06
-2.315827000000000000e+06
-2.315279000000000000e+06
-2.313627000000000000e+06
-2.312651000000000000e+06
-2.313260000000000000e+06
-2.312031000000000000e+06
-2.304857000000000000e+06
-2.301197000000000000e+06
-2.302426000000000000e+06
-2.303881000000000000e+06
-2.304733000000000000e+06
-2.304891000000000000e+06
-2.305483000000000000e+06
-2.304692000000000000e+06
-2.305296000000000000e+06
-2.315681000000000000e+06
-2.326889000000000000e+06
-2.329221000000000000e+06
-2.339854000000000000e+06
-2.327577000000000000e+06
-2.258615000000000000e+06
-2.140319000000000000e+06
-2.099840000000000000e+06
-2.284674000000000000e+06
-2.345601000000000000e+06
-2.348080000000000000e+06
-2.343917000000000000e+06
-2.329654000000000000e+06
-2.328701000000000000e+06
-2.328077000000000000e+06
-2.324918000000000000e+06
-2.319202000000000000e+06
-2.314200000000000000e+06
-2.315997000000000000e+06
-2.318646000000000000e+06
-2.324384000000000000e+06
-2.328747000000000000e+06
-2.316085000000000000e+06
-2.316513000000000000e+06
-2.319527000000000000e+06
-2.316831000000000000e+06
-2.271654000000000000e+06
-2.115484000000000000e+06
-2.129603000000000000e+06
-2.297417000000000000e+06
-2.359991000000000000e+06
-2.356791000000000000e+06
-2.336321000000000000e+06
-2.333679000000000000e+06
-2.337026000000000000e+06
-2.344201000000000000e+06
-2.341715000000000000e+06
-2.333444000000000000e+06
-2.322611000000000000e+06
-2.320927000000000000e+06
-2.319198000000000000e+06
-2.316465000000000000e+06
-2.288260000000000000e+06
-2.167471000000000000e+06
-2.270917000000000000e+06
-2.329969000000000000e+06
-2.332104000000000000e+06
-2.330602000000000000e+06
-2.327542000000000000e+06
-2.323346000000000000e+06
-2.319526000000000000e+06
-2.302984000000000000e+06
-2.296231000000000000e+06
-2.314431000000000000e+06
-2.317261000000000000e+06
-2.316568000000000000e+06
-2.316349000000000000e+06
-2.315788000000000000e+06
-2.314406000000000000e+06
-2.312373000000000000e+06
-2.311956000000000000e+06
-2.308176000000000000e+06
-2.305225000000000000e+06
-2.307067000000000000e+06
-2.310418000000000000e+06
-2.310774000000000000e+06
-2.311279000000000000e+06
-2.314886000000000000e+06
-2.312691000000000000e+06
-2.246604000000000000e+06
-2.081671000000000000e+06
-2.180406000000000000e+06
-2.327086000000000000e+06
-2.343544000000000000e+06
-2.350644000000000000e+06
-2.359291000000000000e+06
-2.366199000000000000e+06
-2.389172000000000000e+06
-2.381690000000000000e+06
-2.290585000000000000e+06
-2.286719000000000000e+06
-2.330566000000000000e+06
-2.331820000000000000e+06
-2.329606000000000000e+06
-2.322591000000000000e+06
-2.325929000000000000e+06
-2.322809000000000000e+06
-2.319502000000000000e+06
-2.311183000000000000e+06
-2.309132000000000000e+06
-2.309242000000000000e+06
-2.312978000000000000e+06
-2.317052000000000000e+06
-2.310039000000000000e+06
-2.311893000000000000e+06
-2.320244000000000000e+06
-2.312587000000000000e+06
-2.307892000000000000e+06
-2.306149000000000000e+06
-2.305220000000000000e+06
-2.317202000000000000e+06
-2.352951000000000000e+06
-2.361466000000000000e+06
-2.335857000000000000e+06
-2.314947000000000000e+06
-2.323307000000000000e+06
-2.352699000000000000e+06
-2.354554000000000000e+06
-2.342436000000000000e+06
-2.348766000000000000e+06
-2.340361000000000000e+06
-2.334992000000000000e+06
-2.337762000000000000e+06
-2.329059000000000000e+06
-2.344612000000000000e+06
-2.339619000000000000e+06
-2.299783000000000000e+06
-2.286279000000000000e+06
-2.285921000000000000e+06
-2.288369000000000000e+06
-2.263484000000000000e+06
-2.157521000000000000e+06
-2.194389000000000000e+06
-2.285766000000000000e+06
-2.292080000000000000e+06
-2.304273000000000000e+06
-2.344968000000000000e+06
-2.767296000000000000e+06
-3.146666000000000000e+06
-3.113394000000000000e+06
-3.046134000000000000e+06
-2.984966000000000000e+06
-2.926120000000000000e+06
-2.818789000000000000e+06
-2.252116000000000000e+06
-1.929121000000000000e+06
-2.076374000000000000e+06
-2.202968000000000000e+06
-2.242891000000000000e+06
-2.265344000000000000e+06
-2.285937000000000000e+06
-2.350530000000000000e+06
6.300000000000000000e+01
-2.296806000000000000e+06
-2.303091000000000000e+06
-2.298494000000000000e+06
-2.325464000000000000e+06
-3.116514000000000000e+06
6.205231000000000000e+06
-2.582926000000000000e+06
-2.477884000000000000e+06
-2.404822000000000000e+06
-2.367467000000000000e+06
-2.342903000000000000e+06
-2.328762000000000000e+06
-2.321841000000000000e+06
-2.314032000000000000e+06
-2.309730000000000000e+06
-2.310647000000000000e+06
-2.307824000000000000e+06
-2.309699000000000000e+06
-2.308619000000000000e+06
-2.306006000000000000e+06
-2.308441000000000000e+06
-2.307091000000000000e+06
-2.304562000000000000e+06
-2.307132000000000000e+06
-2.307355000000000000e+06
-2.304912000000000000e+06
-2.307431000000000000e+06
-2.305638000000000000e+06
-2.308259000000000000e+06
-2.307844000000000000e+06
-2.307290000000000000e+06
-1.490894000000000000e+06
-2.578294000000000000e+06
-2.451906000000000000e+06
-2.393241000000000000e+06
-2.358459000000000000e+06
-2.334746000000000000e+06
-2.325405000000000000e+06
-2.317255000000000000e+06
-2.311822000000000000e+06
-2.311062000000000000e+06
-2.309621000000000000e+06
-2.304771000000000000e+06
-2.306015000000000000e+06
-2.306640000000000000e+06
-2.307144000000000000e+06
-2.307282000000000000e+06
-2.306152000000000000e+06
-2.307914000000000000e+06
-2.306712000000000000e+06
-2.305131000000000000e+06
-2.304117000000000000e+06
-2.305314000000000000e+06
-1.393227000000000000e+06
-1.998797000000000000e+06
-2.108147000000000000e+06
-2.198336000000000000e+06
-2.215262000000000000e+06
-2.259872000000000000e+06
-2.283510000000000000e+06
-2.170283000000000000e+06
-2.827804000000000000e+06
-3.159446000000000000e+06
-3.120172000000000000e+06
-3.129038000000000000e+06
-3.140327000000000000e+06
-3.080863000000000000e+06
-3.018618000000000000e+06
-2.815281000000000000e+06
-2.281342000000000000e+06
-2.036729000000000000e+06
-2.041970000000000000e+06
-2.064197000000000000e+06
-2.089364000000000000e+06
-2.133741000000000000e+06
-2.164568000000000000e+06
-2.387743000000000000e+06
-2.833118000000000000e+06
-2.971850000000000000e+06
-2.935680000000000000e+06
-2.884072000000000000e+06
-2.837610000000000000e+06
-2.795374000000000000e+06
-2.755899000000000000e+06
-2.720679000000000000e+06
-2.686181000000000000e+06
-2.653862000000000000e+06
-2.629015000000000000e+06
-2.605066000000000000e+06
-2.581447000000000000e+06
-2.560319000000000000e+06
-2.540338000000000000e+06
-2.521226000000000000e+06
-2.504172000000000000e+06
-2.488484000000000000e+06
-2.472642000000000000e+06
-2.458349000000000000e+06
-2.448157000000000000e+06
-2.438350000000000000e+06
-2.427982000000000000e+06
-2.418906000000000000e+06
-2.409607000000000000e+06
-2.401505000000000000e+06
-2.395156000000000000e+06
-2.388042000000000000e+06
-2.380686000000000000e+06
-2.372928000000000000e+06
-2.368785000000000000e+06
-2.365953000000000000e+06
-2.361121000000000000e+06
-2.356243000000000000e+06
-2.352422000000000000e+06
-2.348410000000000000e+06
-2.345731000000000000e+06
-2.343537000000000000e+06
-2.339855000000000000e+06
-2.335604000000000000e+06
-2.331337000000000000e+06
-2.187521000000000000e+06
-1.869291000000000000e+06
-1.325702000000000000e+06
-1.268924000000000000e+06
-1.543509000000000000e+06
-1.654264000000000000e+06
-1.707332000000000000e+06
-1.757936000000000000e+06
-1.808707000000000000e+06
-1.849804000000000000e+06
-1.887029000000000000e+06
-1.914348000000000000e+06
-1.943874000000000000e+06
-1.973024000000000000e+06
-2.007694000000000000e+06
-2.022992000000000000e+06
-1.885121000000000000e+06
-1.907500000000000000e+06
-2.056155000000000000e+06
-2.107481000000000000e+06
-2.075187000000000000e+06
-2.138161000000000000e+06
-2.169618000000000000e+06
-2.186131000000000000e+06
-2.199351000000000000e+06
-2.205135000000000000e+06
-2.209720000000000000e+06
-2.167242000000000000e+06
-2.075385000000000000e+06
-2.205681000000000000e+06
-2.245800000000000000e+06
-2.248057000000000000e+06
-2.251753000000000000e+06
-2.258944000000000000e+06
-2.267175000000000000e+06
-2.273622000000000000e+06
-2.273037000000000000e+06
-2.270631000000000000e+06
-2.276382000000000000e+06
-2.280482000000000000e+06
-2.281232000000000000e+06
-2.278639000000000000e+06
-2.277344000000000000e+06
-2.282470000000000000e+06
-2.289286000000000000e+06
-2.298362000000000000e+06
-2.308593000000000000e+06
-2.307306000000000000e+06
-2.307594000000000000e+06
-2.307919000000000000e+06
-2.307185000000000000e+06
-2.307507000000000000e+06
-2.306733000000000000e+06
-2.305400000000000000e+06
-2.305464000000000000e+06
-2.305922000000000000e+06
-2.306095000000000000e+06
-2.304610000000000000e+06
-2.306696000000000000e+06
-2.299937000000000000e+06
-2.290255000000000000e+06
-2.289634000000000000e+06
-2.291740000000000000e+06
-2.289609000000000000e+06
-2.225830000000000000e+06
-2.034423000000000000e+06
-1.686455000000000000e+06
-1.212599000000000000e+06
-1.421804000000000000e+06
-2.064209000000000000e+06
-2.164126000000000000e+06
-2.238973000000000000e+06
-2.524192000000000000e+06
-2.592254000000000000e+06
-2.495509000000000000e+06
-2.437092000000000000e+06
-2.475853000000000000e+06
-2.468735000000000000e+06
-2.455175000000000000e+06
-2.444495000000000000e+06
-2.435543000000000000e+06
-2.427529000000000000e+06
-2.424063000000000000e+06
-2.422566000000000000e+06
-2.413647000000000000e+06
-2.400524000000000000e+06
-2.398462000000000000e+06
-2.381969000000000000e+06
-2.368837000000000000e+06
-2.364929000000000000e+06
-2.358124000000000000e+06
-2.353397000000000000e+06
-2.349729000000000000e+06
-2.346442000000000000e+06
-2.343305000000000000e+06
-2.341140000000000000e+06
-2.337420000000000000e+06
-2.335630000000000000e+06
-2.341359000000000000e+06
-2.331402000000000000e+06
-2.323806000000000000e+06
-2.332536000000000000e+06
-2.333948000000000000e+06
-2.324366000000000000e+06
-2.318048000000000000e+06
-2.312394000000000000e+06
-2.315406000000000000e+06
-2.318296000000000000e+06
-2.315290000000000000e+06
-2.309345000000000000e+06
-2.307803000000000000e+06
-2.308686000000000000e+06
-2.308924000000000000e+06
-2.309821000000000000e+06
-2.319198000000000000e+06
-2.329099000000000000e+06
-2.328097000000000000e+06
-2.324429000000000000e+06
-2.316239000000000000e+06
-2.307489000000000000e+06
-2.306113000000000000e+06
-2.273025000000000000e+06
-2.183120000000000000e+06
-2.270341000000000000e+06
-2.311597000000000000e+06
-2.320478000000000000e+06
-2.320096000000000000e+06
-2.450587000000000000e+06
-2.950019000000000000e+06
-2.585407000000000000e+06
-1.943158000000000000e+06
-2.003959000000000000e+06
-2.208132000000000000e+06
-2.237382000000000000e+06
-2.241240000000000000e+06
-2.252900000000000000e+06
-2.254167000000000000e+06
-2.265942000000000000e+06
-2.270469000000000000e+06
-2.264981000000000000e+06
-2.265931000000000000e+06
-2.267572000000000000e+06
-2.189377000000000000e+06
-1.995824000000000000e+06
-2.157717000000000000e+06
-2.235909000000000000e+06
-2.060112000000000000e+06
-2.073775000000000000e+06
-2.260580000000000000e+06
-2.335249000000000000e+06
-2.367276000000000000e+06
-2.367474000000000000e+06
-2.357367000000000000e+06
-2.317572000000000000e+06
-2.269177000000000000e+06
-2.193545000000000000e+06
-2.340629000000000000e+06
-2.413121000000000000e+06
-2.399142000000000000e+06
-2.303531000000000000e+06
-2.313740000000000000e+06
-2.342243000000000000e+06
-2.335639000000000000e+06
-2.328312000000000000e+06
-2.325809000000000000e+06
-2.318022000000000000e+06
-2.304204000000000000e+06
-2.321648000000000000e+06
-2.338801000000000000e+06
-2.335551000000000000e+06
-2.326337000000000000e+06
-2.322666000000000000e+06
-2.319990000000000000e+06
-2.317240000000000000e+06
-2.317203000000000000e+06
-2.317749000000000000e+06
-2.314515000000000000e+06
-2.316211000000000000e+06
-2.317615000000000000e+06
-2.317194000000000000e+06
-2.316609000000000000e+06
-2.316222000000000000e+06
-2.314734000000000000e+06
-2.316484000000000000e+06
-2.325441000000000000e+06
-2.325786000000000000e+06
-2.320020000000000000e+06
-2.326013000000000000e+06
-2.323485000000000000e+06
-2.308591000000000000e+06
-2.305714000000000000e+06
-2.302471000000000000e+06
-2.254763000000000000e+06
-2.202139000000000000e+06
-2.153479000000000000e+06
-2.141435000000000000e+06
-2.307446000000000000e+06
-2.338056000000000000e+06
-2.338997000000000000e+06
-2.346717000000000000e+06
-2.342142000000000000e+06
-2.328842000000000000e+06
-2.323638000000000000e+06
-2.327613000000000000e+06
-2.332348000000000000e+06
-2.320030000000000000e+06
-2.314079000000000000e+06
-2.319331000000000000e+06
-2.319950000000000000e+06
-2.319562000000000000e+06
-2.320137000000000000e+06
-2.320179000000000000e+06
-2.318959000000000000e+06
-2.317136000000000000e+06
-2.315371000000000000e+06
-2.311664000000000000e+06
-2.312396000000000000e+06
-2.314223000000000000e+06
-2.321698000000000000e+06
-2.324025000000000000e+06
-2.315348000000000000e+06
-2.313956000000000000e+06
-2.311617000000000000e+06
-2.314129000000000000e+06
-2.322829000000000000e+06
-2.323402000000000000e+06
-2.321147000000000000e+06
-2.320092000000000000e+06
-2.316691000000000000e+06
-2.303331000000000000e+06
-2.300274000000000000e+06
-2.300892000000000000e+06
-2.300797000000000000e+06
-2.301682000000000000e+06
-2.298769000000000000e+06
-2.297119000000000000e+06
-2.297345000000000000e+06
-2.298818000000000000e+06
-2.295529000000000000e+06
-2.295314000000000000e+06
-2.296062000000000000e+06
-2.296463000000000000e+06
-2.297692000000000000e+06
-2.298406000000000000e+06
-2.299938000000000000e+06
-2.225927000000000000e+06
-1.904017000000000000e+06
-2.019682000000000000e+06
-2.339481000000000000e+06
-2.386670000000000000e+06
-2.273269000000000000e+06
-1.946114000000000000e+06
-1.916034000000000000e+06
-1.493782000000000000e+06
-1.566191000000000000e+06
-1.896336000000000000e+06
-1.283816000000000000e+06
-8.483260000000000000e+05
-1.082124000000000000e+06
-9.763390000000000000e+05
-8.063860000000000000e+05
-2.148249000000000000e+06
-3.024526000000000000e+06
-2.479734000000000000e+06
-1.412143000000000000e+06
-1.533028000000000000e+06
-1.804141000000000000e+06
-1.039667000000000000e+06
-1.065584000000000000e+06
-7.299860000000000000e+05
-1.442729000000000000e+06
-3.228073000000000000e+06
-3.437759000000000000e+06
-3.322616000000000000e+06
-2.986982000000000000e+06
-2.481762000000000000e+06
-2.230298000000000000e+06
-1.669106000000000000e+06
-9.934590000000000000e+05
-1.121710000000000000e+06
-7.483570000000000000e+05
-1.524224000000000000e+06
-1.515734000000000000e+06
-8.744060000000000000e+05
-4.885760000000000000e+05
-3.723450000000000000e+05
-1.800100000000000000e+06
-3.822537000000000000e+06
-3.838391000000000000e+06
-2.892342000000000000e+06
-1.744219000000000000e+06
-9.899170000000000000e+05
-1.309222000000000000e+06
-3.389767000000000000e+06
-3.798936000000000000e+06
-3.398379000000000000e+06
-3.406464000000000000e+06
-3.524787000000000000e+06
-3.447583000000000000e+06
-3.355001000000000000e+06
-3.255077000000000000e+06
-3.195072000000000000e+06
-3.139647000000000000e+06
-3.078711000000000000e+06
-3.021789000000000000e+06
-2.972324000000000000e+06
-2.894667000000000000e+06
-2.711230000000000000e+06
-2.767503000000000000e+06
-2.799628000000000000e+06
-2.769926000000000000e+06
-2.734173000000000000e+06
-2.696914000000000000e+06
-2.666776000000000000e+06
-2.640636000000000000e+06
-2.613689000000000000e+06
-2.587624000000000000e+06
-2.568966000000000000e+06
-2.562518000000000000e+06
-2.551860000000000000e+06
-2.476484000000000000e+06
-2.380759000000000000e+06
-2.281482000000000000e+06
-2.419705000000000000e+06
-2.494674000000000000e+06
-2.486112000000000000e+06
-2.473092000000000000e+06
-2.465481000000000000e+06
-2.449911000000000000e+06
-2.436831000000000000e+06
-2.381379000000000000e+06
-2.201367000000000000e+06
-2.213746000000000000e+06
-2.387988000000000000e+06
-2.424619000000000000e+06
-2.433799000000000000e+06
-2.415558000000000000e+06
-2.401494000000000000e+06
-2.348778000000000000e+06
-2.240339000000000000e+06
-2.358353000000000000e+06
-2.393637000000000000e+06
-2.389891000000000000e+06
-2.383817000000000000e+06
-2.378457000000000000e+06
-2.372710000000000000e+06
-2.365597000000000000e+06
-2.357989000000000000e+06
-2.352142000000000000e+06
-2.350061000000000000e+06
-2.359829000000000000e+06
-2.365311000000000000e+06
-2.356668000000000000e+06
-2.343433000000000000e+06
-2.338847000000000000e+06
-2.336738000000000000e+06
-2.331753000000000000e+06
-2.327477000000000000e+06
-2.294581000000000000e+06
-2.310440000000000000e+06
-2.331219000000000000e+06
-2.355079000000000000e+06
-2.396686000000000000e+06
-2.370772000000000000e+06
-2.276392000000000000e+06
-2.301188000000000000e+06
-2.318016000000000000e+06
-2.316674000000000000e+06
-2.316764000000000000e+06
-2.318071000000000000e+06
-2.324504000000000000e+06
-2.321734000000000000e+06
-2.314267000000000000e+06
-2.318844000000000000e+06
-2.320861000000000000e+06
-2.312549000000000000e+06
-2.313268000000000000e+06
-2.317587000000000000e+06
-2.310399000000000000e+06
-2.311283000000000000e+06
-2.317619000000000000e+06
-2.315514000000000000e+06
-2.318062000000000000e+06
-2.319323000000000000e+06
-2.255099000000000000e+06
-2.187942000000000000e+06
-2.230461000000000000e+06
-2.315676000000000000e+06
-2.254549000000000000e+06
-2.214686000000000000e+06
-2.316407000000000000e+06
-2.077151000000000000e+06
-2.101771000000000000e+06
-2.333297000000000000e+06
-2.240419000000000000e+06
-2.324461000000000000e+06
-2.366752000000000000e+06
-2.371229000000000000e+06
-2.365523000000000000e+06
-2.354811000000000000e+06
-2.348465000000000000e+06
-2.341592000000000000e+06
-2.338087000000000000e+06
-2.336978000000000000e+06
-2.349222000000000000e+06
-2.347290000000000000e+06
-2.340434000000000000e+06
-2.342857000000000000e+06
-2.347224000000000000e+06
-2.346376000000000000e+06
-2.343541000000000000e+06
-2.340166000000000000e+06
-2.334680000000000000e+06
-2.331880000000000000e+06
-2.331730000000000000e+06
-2.326121000000000000e+06
-2.304577000000000000e+06
-2.320516000000000000e+06
-2.327352000000000000e+06
-2.327574000000000000e+06
-2.322459000000000000e+06
-2.309481000000000000e+06
-2.306512000000000000e+06
-2.316836000000000000e+06
-2.316791000000000000e+06
-2.305763000000000000e+06
-2.301207000000000000e+06
-2.301970000000000000e+06
-2.303571000000000000e+06
-2.302516000000000000e+06
-2.301916000000000000e+06
-2.303967000000000000e+06
-2.305669000000000000e+06
-2.306319000000000000e+06
-2.305976000000000000e+06
-2.304117000000000000e+06
-2.302472000000000000e+06
-2.303316000000000000e+06
-2.301326000000000000e+06
-2.301513000000000000e+06
-2.301765000000000000e+06
-2.301982000000000000e+06
-2.306161000000000000e+06
-2.320453000000000000e+06
-2.301256000000000000e+06
-2.287344000000000000e+06
-2.319579000000000000e+06
-2.322465000000000000e+06
-2.264004000000000000e+06
-2.191737000000000000e+06
-2.205641000000000000e+06
-2.304693000000000000e+06
-2.340789000000000000e+06
-2.342266000000000000e+06
-2.325872000000000000e+06
-2.257009000000000000e+06
-2.309966000000000000e+06
-2.340359000000000000e+06
-2.341504000000000000e+06
-2.337426000000000000e+06
-2.319354000000000000e+06
-2.319599000000000000e+06
-2.330829000000000000e+06
-2.331125000000000000e+06
-2.329827000000000000e+06
-2.326594000000000000e+06
-2.322966000000000000e+06
-2.323776000000000000e+06
-2.334746000000000000e+06
-2.360280000000000000e+06
-2.327887000000000000e+06
-2.125816000000000000e+06
-2.059516000000000000e+06
-1.878682000000000000e+06
-1.967454000000000000e+06
-2.329129000000000000e+06
-2.392741000000000000e+06
-2.385462000000000000e+06
-2.365317000000000000e+06
-2.211280000000000000e+06
-2.270771000000000000e+06
-2.369504000000000000e+06
-2.380955000000000000e+06
-2.380542000000000000e+06
-2.371198000000000000e+06
-2.367941000000000000e+06
-2.366897000000000000e+06
-2.361494000000000000e+06
-2.352776000000000000e+06
-2.343058000000000000e+06
-2.338474000000000000e+06
-2.345696000000000000e+06
-2.350391000000000000e+06
-2.344849000000000000e+06
-2.342502000000000000e+06
-2.342393000000000000e+06
-2.324120000000000000e+06
-2.315974000000000000e+06
-2.316766000000000000e+06
-2.314819000000000000e+06
-2.309159000000000000e+06
-2.307268000000000000e+06
-2.307365000000000000e+06
-2.308152000000000000e+06
-2.307126000000000000e+06
-2.305989000000000000e+06
-2.306892000000000000e+06
-2.308507000000000000e+06
-2.309484000000000000e+06
-2.310839000000000000e+06
-2.314244000000000000e+06
-2.308559000000000000e+06
-2.248597000000000000e+06
-2.139474000000000000e+06
-2.107087000000000000e+06
-2.294404000000000000e+06
-2.349814000000000000e+06
-2.341399000000000000e+06
-2.336140000000000000e+06
-2.345843000000000000e+06
-2.340063000000000000e+06
-2.340924000000000000e+06
-2.336295000000000000e+06
-2.331522000000000000e+06
-2.328828000000000000e+06
-2.332521000000000000e+06
-2.307372000000000000e+06
-2.135219000000000000e+06
-2.104226000000000000e+06
-2.290554000000000000e+06
-2.349192000000000000e+06
-2.361017000000000000e+06
-2.357249000000000000e+06
-2.350659000000000000e+06
-2.307104000000000000e+06
-2.190857000000000000e+06
-2.293314000000000000e+06
-2.339122000000000000e+06
-2.341104000000000000e+06
-2.338174000000000000e+06
-2.332114000000000000e+06
-2.326781000000000000e+06
-2.325656000000000000e+06
-2.324465000000000000e+06
-2.322936000000000000e+06
-2.321379000000000000e+06
-2.318930000000000000e+06
-2.318832000000000000e+06
-2.317976000000000000e+06
-2.321296000000000000e+06
-2.327502000000000000e+06
-2.326619000000000000e+06
-2.317783000000000000e+06
-2.318583000000000000e+06
-2.320691000000000000e+06
-2.322431000000000000e+06
-2.319482000000000000e+06
-2.320552000000000000e+06
-2.316204000000000000e+06
-2.318189000000000000e+06
-2.317019000000000000e+06
-2.317519000000000000e+06
-2.312139000000000000e+06
-2.279006000000000000e+06
-2.300254000000000000e+06
-2.315832000000000000e+06
-2.318429000000000000e+06
-2.325697000000000000e+06
-2.332771000000000000e+06
-2.360498000000000000e+06
-2.371939000000000000e+06
-2.290846000000000000e+06
-2.247683000000000000e+06
-2.300529000000000000e+06
-2.314978000000000000e+06
-2.308312000000000000e+06
-2.243089000000000000e+06
-2.137615000000000000e+06
-2.100389000000000000e+06
-2.277943000000000000e+06
-2.340951000000000000e+06
-2.360520000000000000e+06
-2.343187000000000000e+06
-2.329683000000000000e+06
-2.326138000000000000e+06
-2.320812000000000000e+06
-2.317573000000000000e+06
-2.318619000000000000e+06
-2.322486000000000000e+06
-2.321669000000000000e+06
-2.323006000000000000e+06
-2.326881000000000000e+06
-2.323977000000000000e+06
-2.326449000000000000e+06
-2.336712000000000000e+06
-2.336476000000000000e+06
-2.328632000000000000e+06
-2.330757000000000000e+06
-2.323759000000000000e+06
-2.311526000000000000e+06
-2.308328000000000000e+06
-2.307990000000000000e+06
-2.308462000000000000e+06
-2.309259000000000000e+06
-2.310060000000000000e+06
-2.310706000000000000e+06
-2.311111000000000000e+06
-2.309347000000000000e+06
-2.312711000000000000e+06
-2.319416000000000000e+06
-2.312866000000000000e+06
-2.309451000000000000e+06
-2.310921000000000000e+06
-2.309879000000000000e+06
-2.300332000000000000e+06
-2.299605000000000000e+06
-2.300682000000000000e+06
-2.307236000000000000e+06
-2.310716000000000000e+06
-2.305221000000000000e+06
-2.300879000000000000e+06
-2.299476000000000000e+06
-2.299186000000000000e+06
-2.296569000000000000e+06
-2.297678000000000000e+06
-2.305044000000000000e+06
-2.304621000000000000e+06
-2.309241000000000000e+06
-2.285417000000000000e+06
-2.251781000000000000e+06
-2.246112000000000000e+06
-2.314072000000000000e+06
-2.325457000000000000e+06
-2.327170000000000000e+06
-2.337749000000000000e+06
-2.676770000000000000e+06
-3.151054000000000000e+06
-3.155167000000000000e+06
-3.086471000000000000e+06
-3.019957000000000000e+06
-2.897332000000000000e+06
-2.693253000000000000e+06
-2.252493000000000000e+06
-1.688496000000000000e+06
-1.798784000000000000e+06
-2.020201000000000000e+06
-2.060864000000000000e+06
-2.085674000000000000e+06
-2.108509000000000000e+06
-2.127241000000000000e+06
-2.138329000000000000e+06
-2.068302000000000000e+06
-1.945572000000000000e+06
-2.051049000000000000e+06
-2.191294000000000000e+06
-2.229270000000000000e+06
-2.233446000000000000e+06
-2.234536000000000000e+06
-2.209337000000000000e+06
-2.111182000000000000e+06
-2.226818000000000000e+06
-2.269869000000000000e+06
-2.270411000000000000e+06
-2.272094000000000000e+06
-2.274977000000000000e+06
-2.272144000000000000e+06
-2.268546000000000000e+06
-2.292711000000000000e+06
-2.299826000000000000e+06
-2.335452000000000000e+06
-2.341924000000000000e+06
-2.255694000000000000e+06
-2.238542000000000000e+06
-2.281102000000000000e+06
-2.284161000000000000e+06
-2.292958000000000000e+06
-2.299551000000000000e+06
-2.301706000000000000e+06
-2.302670000000000000e+06
-2.297269000000000000e+06
-2.298913000000000000e+06
-2.295751000000000000e+06
-2.296277000000000000e+06
-2.300679000000000000e+06
-2.300196000000000000e+06
-2.296332000000000000e+06
-2.294851000000000000e+06
-2.296387000000000000e+06
-2.299195000000000000e+06
-2.301913000000000000e+06
-2.303961000000000000e+06
-2.303356000000000000e+06
-2.300995000000000000e+06
-2.305334000000000000e+06
-2.307036000000000000e+06
-2.306827000000000000e+06
-2.314394000000000000e+06
-2.317471000000000000e+06
-2.314908000000000000e+06
-2.316494000000000000e+06
-2.317648000000000000e+06
-2.303852000000000000e+06
-2.298885000000000000e+06
-2.295391000000000000e+06
-2.237753000000000000e+06
-2.143044000000000000e+06
-2.094446000000000000e+06
-2.260174000000000000e+06
-2.349331000000000000e+06
-2.350596000000000000e+06
-2.338754000000000000e+06
-2.337564000000000000e+06
-2.328878000000000000e+06
-2.318739000000000000e+06
-2.320857000000000000e+06
-2.328601000000000000e+06
-2.330539000000000000e+06
-2.319636000000000000e+06
-2.318316000000000000e+06
-2.317227000000000000e+06
-2.318571000000000000e+06
-2.316711000000000000e+06
-2.314696000000000000e+06
-2.313461000000000000e+06
-2.312701000000000000e+06
-2.311303000000000000e+06
-2.308406000000000000e+06
-2.308664000000000000e+06
-2.310135000000000000e+06
-2.306052000000000000e+06
-2.300736000000000000e+06
-2.318146000000000000e+06
-2.319116000000000000e+06
-2.312366000000000000e+06
-2.308851000000000000e+06
-2.302736000000000000e+06
-2.298910000000000000e+06
-2.301089000000000000e+06
-2.303628000000000000e+06
-2.305182000000000000e+06
-2.305473000000000000e+06
-2.304082000000000000e+06
-2.303804000000000000e+06
-2.303782000000000000e+06
-2.312462000000000000e+06
-2.326981000000000000e+06
-2.323572000000000000e+06
-2.312892000000000000e+06
-2.324024000000000000e+06
-2.327492000000000000e+06
-2.324622000000000000e+06
-2.323561000000000000e+06
-2.323662000000000000e+06
-2.321491000000000000e+06
-2.320677000000000000e+06
-2.316549000000000000e+06
-2.285835000000000000e+06
-2.270426000000000000e+06
-2.295801000000000000e+06
-2.258157000000000000e+06
-2.309824000000000000e+06
-2.318190000000000000e+06
-2.244079000000000000e+06
-2.287124000000000000e+06
-2.325451000000000000e+06
-2.320052000000000000e+06
-2.309776000000000000e+06
-2.416360000000000000e+06
-2.661141000000000000e+06
-2.342306000000000000e+06
-2.127841000000000000e+06
-2.073446000000000000e+06
-2.248153000000000000e+06
-2.265828000000000000e+06
-2.146418000000000000e+06
-2.255802000000000000e+06
-2.314931000000000000e+06
-2.331981000000000000e+06
-2.343752000000000000e+06
-2.343896000000000000e+06
-2.332592000000000000e+06
-2.318186000000000000e+06
-2.297604000000000000e+06
-2.112642000000000000e+06
-2.151772000000000000e+06
-2.335796000000000000e+06
-2.356169000000000000e+06
-2.343316000000000000e+06
-2.345862000000000000e+06
-2.349851000000000000e+06
-2.346673000000000000e+06
-2.341652000000000000e+06
-2.341104000000000000e+06
-2.340186000000000000e+06
-2.336842000000000000e+06
-2.332436000000000000e+06
-2.329576000000000000e+06
-2.327385000000000000e+06
-2.323907000000000000e+06
-2.322448000000000000e+06
-2.322117000000000000e+06
-2.320731000000000000e+06
-2.323322000000000000e+06
-2.313336000000000000e+06
-2.297416000000000000e+06
-2.294798000000000000e+06
-2.294460000000000000e+06
-2.296445000000000000e+06
-2.299369000000000000e+06
-2.312889000000000000e+06
-2.320884000000000000e+06
-2.311174000000000000e+06
-2.303471000000000000e+06
-2.303369000000000000e+06
-2.311975000000000000e+06
-2.293989000000000000e+06
-2.266621000000000000e+06
-2.283470000000000000e+06
-2.317524000000000000e+06
-2.325376000000000000e+06
-2.326504000000000000e+06
-2.322132000000000000e+06
-2.311519000000000000e+06
-2.307091000000000000e+06
-2.305897000000000000e+06
-2.305086000000000000e+06
-2.302721000000000000e+06
-2.304174000000000000e+06
-2.304349000000000000e+06
-2.301220000000000000e+06
-2.300757000000000000e+06
-2.300359000000000000e+06
-2.247771000000000000e+06
-2.187421000000000000e+06
-2.095868000000000000e+06
-2.213089000000000000e+06
-2.330309000000000000e+06
-2.341480000000000000e+06
-2.340490000000000000e+06
-2.339761000000000000e+06
-2.337037000000000000e+06
-2.330478000000000000e+06
-2.327877000000000000e+06
-2.328510000000000000e+06
-2.331856000000000000e+06
-2.330555000000000000e+06
-2.320512000000000000e+06
-2.318764000000000000e+06
-2.318501000000000000e+06
-2.318654000000000000e+06
-2.302752000000000000e+06
-2.134486000000000000e+06
-2.047016000000000000e+06
-2.226602000000000000e+06
-2.342545000000000000e+06
-2.355861000000000000e+06
-2.346887000000000000e+06
-2.347207000000000000e+06
-2.343508000000000000e+06
-2.332202000000000000e+06
-2.326236000000000000e+06
-2.324223000000000000e+06
-2.327004000000000000e+06
-2.328335000000000000e+06
-2.291703000000000000e+06
-2.188490000000000000e+06
-2.304540000000000000e+06
-2.345312000000000000e+06
-2.344941000000000000e+06
-2.337419000000000000e+06
-2.327302000000000000e+06
-2.322710000000000000e+06
-2.320909000000000000e+06
-2.334575000000000000e+06
-2.380112000000000000e+06
-2.377529000000000000e+06
-2.279221000000000000e+06
-2.275318000000000000e+06
-2.316376000000000000e+06
-2.319816000000000000e+06
-2.318030000000000000e+06
-2.317197000000000000e+06
-2.318252000000000000e+06
-2.318306000000000000e+06
-2.316915000000000000e+06
-2.314956000000000000e+06
-2.313093000000000000e+06
-2.325629000000000000e+06
-2.330933000000000000e+06
-2.318563000000000000e+06
-2.307264000000000000e+06
-2.306842000000000000e+06
-2.307643000000000000e+06
-2.308084000000000000e+06
-2.308837000000000000e+06
-2.305379000000000000e+06
-2.249676000000000000e+06
-2.196895000000000000e+06
-2.221154000000000000e+06
-2.315254000000000000e+06
-2.342396000000000000e+06
-2.339787000000000000e+06
-2.339596000000000000e+06
-2.298460000000000000e+06
-2.207181000000000000e+06
-2.316085000000000000e+06
-2.347432000000000000e+06
-2.341210000000000000e+06
-2.321602000000000000e+06
-2.313981000000000000e+06
-2.313963000000000000e+06
-2.314397000000000000e+06
-2.315128000000000000e+06
-2.317539000000000000e+06
-2.316952000000000000e+06
-2.316384000000000000e+06
-2.303892000000000000e+06
-2.314969000000000000e+06
-2.322978000000000000e+06
-2.325082000000000000e+06
-2.322788000000000000e+06
-2.312667000000000000e+06
-2.310432000000000000e+06
-2.310682000000000000e+06
-2.309247000000000000e+06
-2.307007000000000000e+06
-2.305534000000000000e+06
-2.307383000000000000e+06
-2.308304000000000000e+06
-2.309093000000000000e+06
-2.308579000000000000e+06
-2.308462000000000000e+06
-2.308501000000000000e+06
-2.307145000000000000e+06
-2.306474000000000000e+06
-2.313920000000000000e+06
-2.317656000000000000e+06
-2.309131000000000000e+06
-2.305426000000000000e+06
-2.304751000000000000e+06
-2.304586000000000000e+06
-2.303558000000000000e+06
-2.302631000000000000e+06
-2.303635000000000000e+06
-2.306101000000000000e+06
-2.306737000000000000e+06
-2.304811000000000000e+06
-2.305994000000000000e+06
-2.305343000000000000e+06
-2.302277000000000000e+06
-2.301461000000000000e+06
-2.303456000000000000e+06
-2.304066000000000000e+06
-2.303009000000000000e+06
-2.256707000000000000e+06
-2.193201000000000000e+06
-2.292946000000000000e+06
-2.321158000000000000e+06
-2.321892000000000000e+06
-2.319122000000000000e+06
-2.487720000000000000e+06
-2.668510000000000000e+06
-2.158734000000000000e+06
3.523805000000000000e+06
-2.282116000000000000e+06
-2.312227000000000000e+06
-2.294490000000000000e+06
-2.312509000000000000e+06
-2.296117000000000000e+06
-2.316192000000000000e+06
-2.303367000000000000e+06
-2.301268000000000000e+06
-2.330887000000000000e+06
-2.985184000000000000e+06
-2.691574000000000000e+06
-2.543895000000000000e+06
-2.452473000000000000e+06
-2.390812000000000000e+06
-2.359807000000000000e+06
-2.339319000000000000e+06
-2.325890000000000000e+06
-2.319661000000000000e+06
-2.314825000000000000e+06
-2.311316000000000000e+06
-2.311337000000000000e+06
-2.308631000000000000e+06
-2.308185000000000000e+06
-2.306370000000000000e+06
-2.309206000000000000e+06
-2.307354000000000000e+06
-2.303337000000000000e+06
-2.307050000000000000e+06
-2.309063000000000000e+06
-2.303660000000000000e+06
-2.310013000000000000e+06
-2.253235000000000000e+06
-2.418052000000000000e+06
-2.504396000000000000e+06
-2.423293000000000000e+06
-2.373382000000000000e+06
-2.346471000000000000e+06
-2.329301000000000000e+06
-2.318358000000000000e+06
-2.316506000000000000e+06
-2.311397000000000000e+06
-2.309946000000000000e+06
-2.308069000000000000e+06
-2.305574000000000000e+06
-2.307960000000000000e+06
-2.304356000000000000e+06
-2.305664000000000000e+06
-2.305328000000000000e+06
-2.306597000000000000e+06
-2.308449000000000000e+06
-2.305028000000000000e+06
-2.306038000000000000e+06
-2.305576000000000000e+06
-2.306308000000000000e+06
-2.306716000000000000e+06
-2.307189000000000000e+06
-2.302881000000000000e+06
-2.305096000000000000e+06
-2.306560000000000000e+06
-1.546372000000000000e+06
-1.945647000000000000e+06
-2.099251000000000000e+06
-2.179971000000000000e+06
-2.244672000000000000e+06
-2.275556000000000000e+06
-2.321036000000000000e+06
1.500000000000000000e+01
-2.205513000000000000e+06
-2.288361000000000000e+06
-5.514110000000000000e+05
-2.304119000000000000e+06
-2.291518000000000000e+06
-2.303562000000000000e+06
-2.302357000000000000e+06
-2.304790000000000000e+06
-2.349629000000000000e+06
-2.293434000000000000e+06
-2.298366000000000000e+06
-2.309604000000000000e+06
-3.112970000000000000e+06
-2.760034000000000000e+06
-2.583285000000000000e+06
-2.477801000000000000e+06
-2.405681000000000000e+06
-2.364869000000000000e+06
-2.343156000000000000e+06
-2.329488000000000000e+06
-2.321099000000000000e+06
-2.314396000000000000e+06
-2.310011000000000000e+06
-2.309341000000000000e+06
-2.308641000000000000e+06
-2.307272000000000000e+06
-2.307016000000000000e+06
-2.307593000000000000e+06
-1.744859000000000000e+06
-1.623771000000000000e+06
-1.998285000000000000e+06
-2.114315000000000000e+06
-2.197065000000000000e+06
-2.253154000000000000e+06
-2.259865000000000000e+06
-2.276913000000000000e+06
-2.291774000000000000e+06
-2.293102000000000000e+06
-2.302036000000000000e+06
-2.321349000000000000e+06
-2.959192000000000000e+06
-2.676502000000000000e+06
-2.534676000000000000e+06
-2.447112000000000000e+06
-2.385910000000000000e+06
-2.354751000000000000e+06
-2.337897000000000000e+06
-2.324146000000000000e+06
-2.317860000000000000e+06
-2.313457000000000000e+06
-2.310057000000000000e+06
-2.308375000000000000e+06
-2.307307000000000000e+06
-2.306469000000000000e+06
-2.306902000000000000e+06
-2.306304000000000000e+06
-1.484481000000000000e+06
-1.864797000000000000e+06
-2.133819000000000000e+06
-2.210874000000000000e+06
-2.286720000000000000e+06
-2.263270000000000000e+06
-2.278079000000000000e+06
