-1.574877878776142461e+04
-2.769323871979379328e+04
-2.015478769647494846e+04
-1.968237265427767852e+04
-1.453286884234026184e+04
3.440591726301713152e+03
1.029816451914204481e+04
3.634913150730992129e+03
2.308550995993042761e+03
5.552413570697931391e+03
6.954263289197785525e+03
8.246733609718778098e+03
6.348863014050657512e+03
1.646484641460303010e+03
1.051568678300459254e+02
-1.002245300164564469e+03
-3.579396115165292940e+03
-2.696415178666696647e+03
-1.052533191017887020e+03
-3.260206083234420930e+03
-5.073393209301675597e+03
-4.092138866736591353e+03
-2.283616992182866397e+03
2.705579836609448989e+02
1.571198877687151025e+03
3.699325431668517581e+02
4.466341863248310347e+02
2.059859734657418812e+03
2.186823938756218922e+03
2.244775229099720491e+03
2.926763370413735629e+03
1.972767253447967960e+03
3.961066622058372673e+02
-2.783763288537493281e+02
-7.341034572043438402e+02
-4.176505320475354779e+02
3.617391390118313410e+01
-1.338301777602230004e+03
-2.634836770870643704e+03
-1.893368690855934346e+03
-1.032433013735983877e+03
-7.298786657280405734e+02
-1.349501220890840330e+02
6.793625982830290866e+01
4.033292612776170216e+01
4.669746849354380061e+02
6.607278683595984603e+02
9.586689162619359195e+02
1.720444610168851568e+03
1.409206081873251378e+03
2.509587251019591463e+02
6.204727367220016276e+01
3.610312447869735593e+02
2.116703680129234613e+02
-5.898487547692359101e+01
-5.667933131279326062e+02
-1.029357474044750461e+03
-7.992633956685166368e+02
-6.102654757228314111e+02
-7.091539322156893377e+02
-3.294716902410359580e+02
-7.607813990226729572e+01
-4.209410626501792763e+02
-3.226480980298520080e+02
2.872425154563085243e+02
6.627972071629137645e+02
8.509401890683747069e+02
7.087823859915790763e+02
2.458155307962505276e+02
2.284869042884475050e+02
4.544254715309226640e+02
2.508130411282119496e+02
2.797867016215467473e+01
-7.574353202317536216e+01
-4.216831973357051311e+02
-5.999574522010773308e+02
-4.312382302325493697e+02
-3.346507437922449526e+02
-2.168368416541359807e+02
-1.204369367634244554e+02
-3.475445772193884295e+02
-3.749472168090816240e+02
1.054645962982474288e+02
4.324484698849304323e+02
4.272980875907303471e+02
4.417876611353610201e+02
4.196984638281301727e+02
3.303479688517569457e+02
2.704976865439685412e+02
1.216905136333324577e+02
-9.496157134165558489e+01
-3.346494370155061802e+02
-6.697650727043754841e+02
-7.944801160501789354e+02
-4.554164556925165925e+02
5.711664452624063415e+00
3.280381425727121609e+02
5.153123665370015942e+02
4.628592192221578898e+02
2.665287494384688216e+02
1.332364854314783997e+02
-2.078970904380985729e+01
-1.711694784899506772e+02
-1.611650574247690884e+02
-1.476831632297607939e+02
-2.118974410763097467e+02
-1.525157137241825467e+02
-1.083319459701444387e+01
3.517764178623812654e+01
3.652941564349951875e+01
5.013360679219524485e+01
5.143875973246213107e+01
5.603354418607569443e+01
5.639057618993854248e+01
5.292306445844076279e+01
5.215838945378106928e+01
8.622053674391963796e+00
-2.487056079827087274e+01
1.349679304444856598e+01
-1.540893499647655318e-02
-7.940163876182893432e+01
-6.917188345425266505e+01
-2.773519511622174250e+01
-5.651862724084676870e+01
-3.117822623601628607e+01
5.452838025908639707e+01
4.996121679858866571e+01
-2.569557699351207702e+00
2.215384840888073192e+00
3.391975212158796182e+01
3.231434844661593786e+01
-1.053614512999505770e+01
-4.622602148756938334e+01
-3.887517498015441930e+01
-1.745780594298458865e+01
-7.492738501612761226e-01
4.415665557425468535e+01
1.019582858450604164e+02
8.215828531924036326e+01
-2.274761017111347527e+01
-7.566709116207690045e+01
-3.381897773506406679e+01
-3.665148983313545017e+01
-8.933864052788928234e+01
-5.971290543176983334e+01
-2.111979019312064665e+01
-5.770079332173565945e+01
-2.658849219095030492e+01
6.201999720614836065e+01
6.802114762569051720e+01
1.064642221618369717e+02
2.096427554886669782e+02
1.661175904324843486e+02
2.509509262545768493e+01
-3.935501006830001813e+01
-9.283236694092059338e+01
-1.529804599922769057e+02
-1.489840912573157539e+02
-9.491952329502178998e+01
3.848818801021188563e+00
-8.588295900906551594e+00
-2.328135813442747519e+02
-2.653465051477156749e+02
2.473537073417892884e+01
1.287991372701189334e+02
5.573905969551011452e+01
1.688895882743038896e+02
2.055666792386449231e+02
5.616921841387602399e+01
8.016039634906756817e+01
2.037212953075646737e+02
2.686378865815210020e+02
3.010118158172058997e+02
3.853491470065894475e+01
-3.267836484286213476e+02
-2.240851277658347556e+02
-2.355207306347190155e+01
-1.703833043305363901e+02
-2.814811106909582463e+02
-3.557013607511840405e+02
-5.408379911644112781e+02
-4.183067583868284487e+02
-1.076566018826251252e+02
5.809243260704064937e+01
3.427615144944400072e+02
4.678478273307005111e+02
1.600223766489964703e+02
2.055522646777423006e+02
6.458644253553742374e+02
7.198381094965537841e+02
5.914067704596834574e+02
3.226360080098735921e+02
-2.382286205232419434e+02
-3.004031677804300671e+02
5.066933048486764735e-01
-3.592950520121719364e+02
-7.360648037748238721e+02
-6.183599200213928953e+02
-8.938871897480897815e+02
-1.127011631126554676e+03
-5.384479056229039315e+02
4.217702535438701972e+01
2.861438162013779447e+02
3.170704800800640442e+02
-9.896687737697673981e+01
1.569101756722009213e+02
1.423543350085137945e+03
1.721793122323713760e+03
1.061805413886026145e+03
9.259443655186270234e+02
5.921187416372339385e+02
-6.656522199934708794e+01
-9.857890230491033634e+00
-8.144059783505237249e+01
-5.939609792779126565e+02
-9.129249054139379496e+02
-1.984911170732225401e+03
-2.871991270051407810e+03
-1.471685673581984247e+03
-6.534655296864266916e+01
-5.806792513414164887e+02
-8.023329048236226981e+02
-2.884923372376287034e+02
3.003486849755307730e+02
1.872634139916625145e+03
2.935438931094169675e+03
2.506206349247571325e+03
2.705597695245182877e+03
2.339273685864469826e+03
2.935047087088489093e+02
3.988814434612639843e+02
1.973404030921291906e+03
5.182550990247405025e+02
-2.321446421129466671e+03
-4.240221976607610486e+03
-5.390744364595851039e+03
-3.740458287316639598e+03
-1.591310515670756786e+03
-3.067404388167960406e+03
-3.481921564757804390e+03
-9.143965138168335898e+02
-5.282488967205571271e+02
9.855261813508511750e+02
6.705212729658264834e+03
9.255157298359155902e+03
7.822947003399349342e+03
6.087498373944014929e+03
2.685479665818858393e+03
4.254574098861772654e+03
1.094480828968967216e+04
3.582029518802786242e+03
-1.409860890929441484e+04
-1.904865050889379927e+04
-2.211452699234538522e+04
-3.229622554128585762e+04
-1.864082169247604907e+04
1.676700825284969324e+04
2.953765086674268605e+04
2.197762156347150085e+04
2.226176551831078541e+04
1.632909355330680228e+04
-3.871354454620982324e+03
-1.131657536846393305e+04
-3.887445047236980372e+03
-2.452600178300242987e+03
-5.937606660390903016e+03
-7.427827865869960078e+03
-8.903672536096284603e+03
-6.959374841390993424e+03
-2.030169126636690407e+03
-3.869354260841046198e+02
1.078068156323410449e+03
4.016189249183532411e+03
2.874532314146463705e+03
9.792957584716364181e+02
3.454135378745023900e+03
5.477209635849697406e+03
4.473484389047731383e+03
2.590016344695516636e+03
-1.959818262271880087e+02
-1.612408785773978707e+03
-2.686114777340727642e+02
-4.325115406801327822e+02
-2.279700199932392479e+03
-2.348865573996513831e+03
-2.389300859816001321e+03
-3.293431561522465472e+03
-2.335705367668122562e+03
-4.990592753457240178e+02
3.128649946732372200e+02
7.440381718756185592e+02
3.801340302211162339e+02
-1.565714452018206515e+01
1.535048023667042344e+03
2.885965256289714489e+03
2.042482818101428848e+03
1.149752260443880004e+03
8.206026817587390951e+02
1.236287365876558226e+02
-6.829632060572149044e+01
1.230377989806517292e+01
-5.020379556935797609e+02
-7.713672079428688448e+02
-1.091124046960819896e+03
-1.930691266056944869e+03
-1.563550814765395671e+03
-1.763332109159331935e+02
6.658614394405815062e+01
-3.815621175394320517e+02
-3.052755211398803681e+02
-2.083705261681653909e+01
5.177791046638257058e+02
1.080834799439857079e+03
9.399602168450517183e+02
7.222259166203325549e+02
7.435633592613182827e+02
2.957576369178669324e+02
-9.435978930795815955e+00
3.675260272126020027e+02
3.733548853400282042e+02
-2.048817151673329420e+02
-6.622134339439612631e+02
-9.050353369468714391e+02
-7.011858839062629158e+02
-1.675147717776651177e+02
-1.820908428755250554e+02
-4.744966208595893136e+02
-2.957152958016694129e+02
-1.175098529365968858e+02
-8.055243190934433528e+01
2.956096579297499147e+02
5.948308628156202076e+02
4.870671646273651163e+02
3.454230189654068113e+02
1.732634970703463182e+02
8.202761558587627633e+01
3.505950495226059047e+02
4.145624616016646655e+02
-3.532224744362172686e+01
-3.391976672672990958e+02
-3.464436864749353049e+02
-3.760504110868213843e+02
-2.954547327839657669e+02
-1.297044478243859658e+02
-1.043731804026003829e+02
-8.362185871531744397e+01
-3.475348641541145156e+01
-4.688684647182218157e+01
5.726314590993945330e+01
2.229859160265175433e+02
1.696952653202361887e+02
2.754281082008815051e+00
-4.207789389049960249e+01
4.670706818193665555e+01
1.707223325168627639e+02
1.620607608878282520e+02
3.503005803412187902e+01
1.615679662705657549e+01
4.415713906959005897e+01
-5.450582217593854750e+01
-1.131788330156585971e+02
-4.726602470642609433e+01
-5.884607144227883424e+01
-1.683959215597624848e+02
-2.113780173770121280e+02
-1.223946838994653206e+02
3.871356692348814477e+01
1.162440287287634533e+02
6.600913544818362766e+01
4.249804196730412542e+01
6.322779169372351049e+01
2.794339850622283450e+01
1.554967178527495975e+01
7.568919736374903096e+01
9.373107107663133775e+01
5.615388783794716687e+01
1.635040226550334452e+01
-3.522427246686542901e+01
-6.398574957509750050e+01
-6.090656235417120001e+01
-9.219912148166706345e+01
-1.202717692767685662e+02
-7.315686689600447323e+01
-5.228216823707962924e+00
2.725600824234722097e+01
3.780466523863704964e+01
3.277677201817358821e+01
1.772928339546947640e+01
-1.483529337300308981e+01
-4.180686398445847374e+01
-7.917777972407920473e+00
6.163489821858750162e+01
9.600094969999351235e+01
1.020982907784402300e+02
1.070454416264348225e+02
9.492850447449556839e+01
5.932385123659918946e+01
3.817738370676345472e+00
-7.623196031122110128e+01
-1.808491367142673880e+02
-3.009707384176019787e+02
-3.684055650507556834e+02
-2.850142666113996484e+02
-7.161429269719135959e+01
1.710480275043128131e+02
3.858401187936989345e+02
4.826938498962192057e+02
3.790215135673773830e+02
1.691919230276147630e+02
-1.654938515835922175e+01
-1.602998570676831491e+02
-2.222947447136219523e+02
-1.771012262580605636e+02
-1.303102897914859284e+02
-1.351292249162634107e+02
-1.227617508308126020e+02
-8.106761442819994556e+01
-3.441487230364422345e+01
2.997557237860608481e+01
8.679442410571301991e+01
1.090868252767328244e+02
1.138161399192319152e+02
9.360214636115595965e+01
5.903922754726443856e+01
5.406343062436880587e+01
5.295480577231776209e+01
1.955219546364583394e+01
-1.973866559936170262e+01
-5.905900136904669750e+01
-8.761641843268259322e+01
-7.074993792014976179e+01
-5.191812688464786874e+01
-4.938016928585597043e+01
3.265562825036318895e+00
4.428885141283944904e+01
-1.243235566077981069e+01
-4.287233979315703181e+01
8.818346825762171548e+00
3.154129255425207390e+00
-3.551375906267404048e+01
2.283059797903182542e+01
9.789651203323238349e+01
9.180405097969686778e+01
6.411833468199075980e+01
4.241380883436936955e+01
6.689746602215995708e+00
-3.088664636164624611e+01
-7.225186010281063886e+01
-8.616058190712963949e+01
-4.007256730671463885e+01
-1.412219686252668893e+01
-3.582431938582372055e+01
-8.037776780780900410e+00
4.417318038675354330e+01
2.584284956266531097e+01
-9.336970165685229972e-01
1.883125622383174402e+01
1.573328890139046266e+01
-1.327983436400086070e+01
-1.134784483311237935e+01
6.874255675102077134e+00
1.520109213067030218e+01
2.050509929520511321e+01
2.827807400081704614e+01
3.433623846066518581e+01
1.452654090175274781e+01
-1.989586323357380948e+01
-1.553900968374992608e+01
-1.304877749501028106e+01
-6.368294748502587055e+01
-6.222177797492323492e+01
1.940927868518086186e+01
3.033104476760098223e+01
-1.302986370462413035e+01
2.665483055059850770e+01
6.640036756803205265e+01
6.487177299296428501e+00
-4.110451594403290443e+01
-2.279853000738196656e+01
-2.015885873515862059e+01
-3.848356536813236772e+01
-3.059209215505598678e+01
1.924095181567898294e+01
9.386388093658830201e+01
1.089543671224817842e+02
3.921487082934291379e+01
-4.379118674595854799e+00
-9.697041676072521099e+00
-6.937006890861786701e+01
-1.174475296213241506e+02
-5.220580079879010782e+01
3.465636670789943707e+01
3.842962122843690054e+01
-1.401399545786163880e-02
-1.210287385404867777e+01
5.551194222131419664e+00
1.441286278878299632e+00
-3.038237056405279191e+01
-4.935411207298450620e+00
6.102996813392952902e+01
3.964838557608226921e+01
-2.122161644231082533e+01
8.687011880150985021e+00
5.112866601846295111e+01
1.482054625419606175e+01
-1.290254120774256386e+01
9.628340035309062017e+00
1.967584026793092633e+01
-9.413221750363910401e-01
-3.652469483402151695e+01
-5.298270750352912017e+01
-3.300050295484022200e+01
-4.564538410607096353e+01
-7.987962138520043709e+01
-2.047207507943573646e+01
6.053834335965099456e+01
3.432269035290898529e+01
1.639796585197301582e+01
6.636101112587691375e+01
3.878053612142485207e+01
-2.301673043467722124e+01
2.433961135184869917e+01
7.235197948699241977e+01
3.187116508931320524e+01
1.454031061006352665e+01
2.434446477142869369e+01
-1.858886940744583072e+01
-6.413037295980764441e+01
-7.242137245209660534e+01
-7.930702727259492235e+01
-7.783758399123570371e+01
-6.157803249567626125e+01
-3.751644504054898022e+01
1.636259245053463118e+01
6.465147245660506314e+01
6.339663050784439946e+01
6.411184194912445378e+01
7.593094923606017232e+01
4.571224470538547280e+01
1.250540043790259759e+01
1.611906310231993800e+01
1.487093690827684433e+01
1.500977533748227444e+01
2.634071780753995995e+01
-1.093689362876576476e-02
-3.286658290067282451e+01
-3.290531565002950032e+01
-7.098155275029614586e+01
-1.257708552539383362e+02
-9.527700684060664571e+01
-4.628511610768430984e+01
-5.059552493249603344e+01
-1.756081209051758663e+01
5.148987032224646754e+01
6.267116714424466295e+01
6.559341647127979513e+01
1.054485036534588005e+02
1.171294952589494329e+02
1.189003545368700117e+02
1.380762413525045815e+02
1.005328029159976069e+02
3.389386281727148997e+01
9.788849804629540241e-01
-1.066220375905701303e+02
-2.954905652577143655e+02
-3.614349198208090002e+02
-2.875447416213828546e+02
-2.036851580741094381e+02
-3.675850389262814133e+01
2.401852945788578495e+02
3.899395844109175187e+02
3.263666462147148764e+02
2.230791687810226733e+02
1.234971790563193395e+02
-2.642422510894698462e+01
-1.259696120154967218e+02
-1.088888701085961515e+02
-8.690507277351920834e+01
-1.065605633277558724e+02
-9.369876991663107901e+01
-5.030022826628709254e+01
-2.786310584990434336e+01
-8.866850639033907910e+00
1.093750356283760183e+01
-1.271003919838406837e+01
-4.764966940041662724e+01
-1.431058180968103422e+01
6.284153063835575637e+01
1.102966409741829068e+02
1.250105773455837408e+02
1.055865727056757777e+02
2.572369531594048553e+01
-6.029098159417149816e+01
-7.459578560386680124e+01
-4.466802572363064883e+01
-2.221980329274007104e+01
-6.972452915929843620e+00
-1.467537393638326293e+01
-4.695135189930795150e+01
-4.400063357760353000e+01
8.583864808231139065e+00
5.437225965049139376e+01
6.505693586420289876e+01
4.128528852460419785e+01
-1.086272033978111118e+01
-5.357042435767665012e+01
-5.601306385942721988e+01
-2.271966304005584192e+01
2.811057027367024475e+01
4.409008418342674673e+01
-3.188239538635780690e+00
-3.675798202148225613e+01
-8.457009931328922647e+00
1.907264952951857140e+01
3.204337764771437236e+01
6.779594812336755183e+01
7.775797719853866852e+01
2.298910439960923213e+01
-3.528855632172486168e+01
-5.822778355280284046e+01
-6.245892263986666393e+01
-5.927404541167317831e+01
-5.925252460976524560e+01
-4.497461250805552879e+01
7.428969113655846002e+00
5.073812003381780755e+01
5.717442004035151371e+01
6.897803201957705710e+01
6.356513430790021602e+01
4.344828703502482625e+00
-3.633653385005045777e+01
-2.427424759370235208e+01
-1.522874107147213429e+01
-6.786113094832506576e+00
5.009742035247037428e+00
-2.047067054563778044e+01
-3.566720971377274907e+01
5.716357768952960328e+00
3.500425018084145989e+01
3.457822583738174416e+01
4.196369941335288445e+01
1.397241430268757156e+01
-4.953409733903907863e+01
-7.008534197705400004e+01
-5.357975302348089741e+01
-2.590115049033222050e+01
2.927222160222067160e+01
5.880590307345869405e+01
3.803854212089443365e+01
3.661993264035438500e+01
3.521513067049075829e+01
-8.098848238887294215e+00
-2.229983710406015973e+01
-1.329242132618657379e+01
-4.748664089758836582e+01
-5.053190941772022171e+01
6.437718165848112406e+00
2.210509123024653633e+01
2.003821383776023879e+01
4.830096428435987121e+01
1.658337909357954132e+01
-4.752008420869779570e+01
-2.243328158551743812e+01
2.409672555226207891e+01
1.407360145125446671e+01
1.603754391159493053e+01
2.285311564852268162e+01
-1.624440057521393399e+01
-4.518727251132991540e+01
-4.090308534388606176e+01
-2.704905392557911981e+01
1.525371279771089483e+01
4.067783982122853814e+01
6.972727738218833515e+00
1.313799114546026159e+00
3.394039047165971112e+01
1.686911035288789407e+01
1.171777892956712863e+00
3.738041370445237987e+01
2.504405774452413525e+01
-3.752265033148318452e+01
-4.642235586553806570e+01
-3.101923665203345237e+01
-4.080048472931736114e+01
-2.412458090125080545e+01
1.304319994648695946e+01
1.645821496683807794e+01
8.493348803800410352e+00
1.882149405670014986e+01
2.914234855876209096e+01
2.726199512207286446e+01
2.322639186491436902e+01
3.453776369054845929e+01
4.318976875620104039e+01
-1.076869007054959138e-02
-6.083483100017144807e+01
-6.239596712157003822e+01
-4.725208896720734941e+01
-6.472149662172446938e+01
-3.901896457008341912e+01
3.740530958638409942e+01
5.248096188865403633e+01
9.609419956413018937e+00
7.028300107337555502e+00
3.129466720001607527e+01
2.665898600605823177e+01
3.308357004843599469e+01
7.731793775320500117e+01
8.200377568961707198e+01
8.163111055625742907e+00
-5.822110268625329610e+01
-6.816179184851671380e+01
-8.164329572330458973e+01
-9.079552706947680463e+01
-3.170909888159635059e+01
1.569815444966603657e+01
-3.246145762929850065e+01
-6.539912037331173167e+01
-1.775999097294284468e+01
5.258738878290622587e+00
4.532306010959016085e+00
8.064257072128093284e+01
1.787224644847741217e+02
1.964949735495680159e+02
1.651299770912526128e+02
1.313983624265096921e+02
6.968959137777702040e+01
-6.138151883986468960e+01
-2.524486999049629787e+02
-3.920357362264946346e+02
-3.851911719330025790e+02
-2.890338121034320125e+02
-1.393261505463522667e+02
1.233113460219084487e+02
3.924253143741821077e+02
4.593068808621388825e+02
3.513685201794164641e+02
2.107168096912937187e+02
4.308576489626333483e+01
-1.372080315118582234e+02
-2.298402235480625961e+02
-2.096591227131505946e+02
-1.339688883081765880e+02
-6.327106760970464450e+01
-3.654467539298406820e+01
-2.383756821131635917e+01
8.256040331256144782e+00
1.136821268880453140e+01
-1.331084413731506899e+01
8.962025202177393624e+00
4.920071256688029848e+01
4.540810467939930106e+01
4.447026895452452067e+01
6.223130255251240328e+01
4.691207628478375824e+01
2.507054411360179813e+01
2.921978549500107647e+01
1.384176005460693837e+01
-1.852772909325353012e+01
-2.568913712600814847e+01
-2.929654344622125350e+01
-4.271557799075553419e+01
-3.976977288951832179e+01
-2.642452576242181905e+01
-1.564420442292285962e+01
-1.221208828869974994e+01
-2.935686574287314343e+01
-3.514086608391169619e+01
-9.558052648491848213e-01
1.833774077391480972e+01
9.120386810039493142e+00
3.661802345876061793e+01
7.802748955491432525e+01
6.610418938858659033e+01
3.597531978702222233e+01
2.592285496924628418e+01
7.354673784296164918e+00
-1.997204269161773027e+01
-3.520083411606951529e+01
-3.964837466690745771e+01
-3.169837617359789306e+01
-2.822614764713574687e+01
-4.542605775023224624e+01
-4.642221551488701436e+01
-2.054741131360919226e+01
-2.175104198734900685e+00
2.603112318298531491e+01
6.536394078141947261e+01
5.428198031655529832e+01
1.453687066391874438e+01
7.310433758282785632e+00
-8.070477346430854126e+00
-3.599004951716288758e+01
-9.974462439136860814e-01
4.864159820420552904e+01
2.360274721699320821e+01
-4.128156738112767954e+00
2.482538118877698352e+01
2.662413704776325574e+01
-2.215730463458889687e+01
-4.780212508350954437e+01
-5.136635759303303672e+01
-7.375959443346201283e+01
-8.063695241147765103e+01
-3.277965422366582970e+01
3.469817469238118690e+01
7.398436722013602207e+01
8.438454424156803668e+01
8.161697157470813124e+01
6.348925956622393585e+01
3.116488750242748651e+01
2.628626518146893076e+00
-2.201346495901551137e+01
-6.478365491276558430e+01
-1.153088178271910351e+02
-1.180171298241688618e+02
-4.833579128420789317e+01
3.856974581594528217e+01
9.204650725596789584e+01
1.249156964781359562e+02
1.129419347051193370e+02
5.925355451589656930e+00
-1.012588997931233195e+02
-8.277980532369493005e+01
-2.540132335877980907e+01
-3.214691557915284648e+01
-1.058203277135361731e+01
5.629045052293811580e+01
3.719820927406497191e+01
-2.491904273780012602e+01
1.124611891831253097e+00
4.106565618717473143e+01
6.846102599084964879e+00
-2.266879621970644010e+01
-1.173994720524460256e+01
-9.581320968957948381e+00
-3.252090804832490356e+00
2.497826743064455357e+01
4.100921295747065187e+01
2.987170634617631748e+01
-1.165655977827367185e+00
-2.675787649758611408e+01
-1.486315343784221632e+01
1.280740959923684086e-01
-2.203453925747013642e+01
-4.354198488218102625e+01
-5.409264652114391225e+01
-7.655897242458725316e+01
-5.651588728499169889e+01
2.601955310931669274e+01
8.751023758239571748e+01
1.095033811125218079e+02
1.225192285481066108e+02
9.446684837172183791e+01
4.111822003378370027e+01
1.248438653856291047e+01
-3.747069414118293906e+01
-1.113741262693880714e+02
-1.258240633815728415e+02
-1.111733766621915578e+02
-1.085925040495750125e+02
-3.140222762290513003e+01
8.642010621892605116e+01
9.627928591843938477e+01
4.370704135718057870e+01
2.716123252377838782e+01
-5.746927834068816132e+00
-3.307487962338890242e+01
2.522783792275933124e+01
6.906917639723060631e+01
2.946113124690197083e+01
1.687118282967770355e+01
2.979188934495054042e+01
-1.216387307225452119e+01
-1.623237364424173279e+01
5.344125685708556261e+01
3.557364647687997916e+01
-7.396236914038648536e+01
-1.035287358313558030e+02
-6.393556339275611577e+01
-7.031142641140463923e+01
-7.454630433603983874e+01
-1.644172989756887304e+01
1.418689707505433972e+01
-2.795427044397439431e+01
-3.797600956732972577e+01
4.762978510733056225e+01
1.488668704215363618e+02
1.865421461697528400e+02
1.844902602652540793e+02
1.761464795174372284e+02
1.282265144026215467e+02
2.025558748741235604e+01
-1.048266892629154370e+02
-2.232086723958117034e+02
-3.461778308926985801e+02
-4.166169572687842333e+02
-3.338888742770479894e+02
-1.048111577793298892e+02
1.632684895119056421e+02
3.755538877337798453e+02
4.500868619697213830e+02
3.411601918888006821e+02
1.387043283829588347e+02
-2.157686015674303093e+01
-1.178457630266777585e+02
-1.599095424360333766e+02
-1.214389092144445073e+02
-5.924745986257766361e+01
-6.272800947463888832e+01
-9.156405820240415494e+01
-7.003490102629582736e+01
-2.504176349676728108e+01
-5.928655152375222670e+00
8.988411399893631026e-01
3.265312160021284171e+01
7.889041209247477582e+01
7.884187992818515056e+01
3.658381797332587837e+01
2.808352183725463291e+01
3.335065455433305459e+01
-5.171592411844794235e+00
-1.526528983080408608e+01
3.208578068828521879e+01
2.251834238992741177e+01
-5.246222456766302145e+01
-9.285824758707217086e+01
-9.042337242808137887e+01
-4.745970680801448793e+01
5.157273461991309205e+01
1.170591141277186864e+02
9.024636414843379839e+01
3.187632590619022110e+01
-3.543338343781867650e+01
-9.146940911239049399e+01
-6.616372410119328151e+01
3.998400932060901081e+00
3.539700760633640897e+01
3.492400270644172622e+01
4.308951832402522442e+00
-3.620450498414779616e+01
-1.004770347909889772e+01
2.969906672415103799e+01
-1.489910618171354173e+00
-1.154781924723084074e+01
2.367470068615218182e+01
-1.124603795124950789e+00
-2.018319022556078579e+01
4.423219310817501082e+01
5.980470642032698692e+01
-5.954099787575177771e+00
-2.359722852593804987e+01
4.513011356706625676e+00
2.211127436064724705e+01
3.456471107220698258e+01
-1.986196518848052150e+01
-1.406417289461963378e+02
-1.691556727488662375e+02
-8.094967367460860430e+01
6.040068157003185334e+00
1.196949416915375650e+02
2.788919247772827248e+02
2.742618339447566314e+02
2.624097613154834363e+01
-1.746670748633458459e+02
-1.330901034271157926e+02
-5.660567760026902562e+01
-1.050188843039152999e+02
-1.055865908010703720e+02
3.553999291121171744e+00
-3.330025055964029868e+00
-1.262398735147738194e+02
-4.925881912923613726e+01
2.482919043915843815e+02
3.798134689973887248e+02
1.889639613618926433e+02
-3.092109891017085843e+01
-8.846167084115057833e+01
-1.556483987661367507e+02
-2.924935683552593559e+02
-2.404917592385502019e+02
5.490200302723229697e+01
2.362802153685057078e+02
1.167291521373853840e+02
-1.160531582829688979e+01
6.854730736961354864e+01
9.679193844156827709e+01
-1.236806152379026997e+02
-2.540175563593016932e+02
-4.853502007218196468e+01
1.069599783584293391e+02
-5.029071943260376543e+01
-1.376717461142529260e+02
4.891675004314492270e+01
1.789065229440262215e+02
1.615776027442582290e+02
2.477425083220868771e+02
3.974714303218977420e+02
2.845698611483188074e+02
-2.130788166552064524e+02
-7.071181480078259938e+02
-6.276430425690633683e+02
-1.327236013326358375e+02
9.226539503836113454e+01
1.248485199681137345e+02
3.356675172391903743e+02
1.847274374036812787e+02
-4.412638552193197370e+02
-3.353799578376765567e+02
6.363036324063923530e+02
9.419818491798071136e+02
2.939390020900939362e+02
-1.668099840187995540e+02
-4.247235147659692984e+02
-9.377496277636593049e+02
-8.616319346476026340e+02
1.959340273034235054e+02
8.980580390358682052e+02
4.859415370151495495e+02
-1.465266562145117177e+02
-2.916142953158918658e+02
-9.480550093171912351e+01
2.736642714869703923e+02
5.826762929837002503e+02
4.866818980669076495e+02
5.768548297668820624e+01
-4.151084452934041451e+02
-7.624732438988786498e+02
-6.747915638594558914e+02
-1.557229652421163451e+02
-2.712631007206941725e+00
-4.873680162880672242e+02
-5.404235803094034054e+02
3.370217934271215086e+02
1.016031101031673415e+03
8.212799343228849693e+02
4.592091043422675511e+02
1.927834356379169947e+02
-2.335954805246274475e+02
-1.064215257237649439e+02
9.136538645948315889e+02
1.375185649051131350e+03
4.081943551577150515e+02
-9.817096147601341727e+02
-1.983775696227135995e+03
-2.234518696586551414e+03
-1.128797491690125071e+03
3.638566468775903786e+02
2.759345085488145628e+02
-8.390035390833871816e+02
-1.010428152038774101e+03
-1.272365055432361203e+02
1.362050584155959086e+03
3.348881645483942521e+03
4.140506314243438283e+03
2.357056487624241527e+03
-2.662150680648005050e+02
-1.698621375972667920e+03
-1.823812240819175486e+03
-7.355140556971530259e+02
4.253583317287365162e+02
-8.605158516661249450e+02
-3.736332445336261117e+03
-4.282427327868343127e+03
-2.396566924422006196e+03
-6.981577906056348866e+02
1.301971920841923975e+03
3.693073520558484233e+03
3.394580826316024741e+03
1.196635395631746405e+03
1.588471018888544450e+03
3.905381833738510522e+03
4.348685916880896002e+03
2.496181582148913094e+03
-1.365948525833399344e+03
-6.184180406149741430e+03
-7.591772619173222665e+03
-5.008547203458308104e+03
-2.500587216239946429e+03
6.603092745479953010e+02
5.056436716749259176e+03
4.481267080679825995e+03
-5.255614418091995503e+02
-9.617298910313203351e+02
1.848765704150237298e+03
2.822937735398607515e+02
-2.232707558448641521e+03
-4.387547838181164366e+02
1.565892544960990563e+03
1.312520841604754196e+03
1.881256456068849047e+03
3.181910713153495180e+03
2.414487877879125790e+03
-1.124848628588978499e+03
-5.128521027029923971e+03
-5.548987251555368857e+03
-2.415107010344735954e+03
-7.411361257195052588e+01
1.069271206736006661e+03
2.411547002455000438e+03
1.683784865384105842e+03
-2.955535631584672842e+02
-3.385242163875403776e+02
-8.356653901961035444e+02
-2.016575519963016177e+03
7.122784140282772114e+02
3.867490953542140687e+03
2.260988345252249019e+03
1.805131266852553381e+03
4.697240992348153668e+03
2.295608376311415213e+03
-5.035035210319054386e+03
-7.152925735892103148e+03
-3.394922905809498388e+03
-9.245605647965669505e+02
-1.184205771137793135e+03
-1.910673782579549425e+02
2.936839770810012851e+03
2.812026728448803169e+03
-2.295131211724001332e+03
-2.976411041272899183e+03
4.080369268848872252e+03
6.147100416560927442e+03
-1.968330460773536572e+02
-1.635239094982337974e+03
2.414888806410235702e+03
3.647013782371016646e+02
-3.672048107161814187e+03
-5.317664562972663589e+02
2.374868964222207524e+03
-1.380327143501935552e+03
-4.434908004380750754e+03
-3.275140703563530224e+03
-1.594735854367437469e+03
9.192502000817677299e+02
3.621696361230410730e+03
2.700026465643002211e+03
7.553309059599845341e+02
1.293889984513615218e+03
4.225706812661966865e+02
-2.062766342440547760e+03
-1.003144229395554845e+02
3.926952998852713790e+03
2.409283036123295915e+03
-2.246242414625633501e+03
-3.622343041131006430e+03
-3.098105298686909919e+03
-3.637727303993338410e+03
-3.081179596103652784e+03
6.069420571494480328e+02
5.132208007304272542e+03
6.490216546790990833e+03
3.896230693317395890e+03
8.946735246273933626e+02
-6.679924934591313104e+02
-3.004293607169066036e+03
-5.556939884258106758e+03
-4.641191635621308706e+03
-1.063884501128584361e+03
1.371273333704215702e+03
2.209813065391201235e+03
2.574440907457872981e+03
2.350557901719894744e+03
1.486106232907400681e+03
1.451822947127448913e+02
-1.116239690283377968e+03
-1.112789034484323565e+03
-2.161314955475637873e+02
6.259771664795652413e+01
-2.114147674612065089e+02
-4.446200922748161020e+02
-6.865615001363186138e+02
-6.110054802561292036e+02
-4.097610951189395223e+02
-5.515422107486043615e+02
6.057195468293754459e+01
1.552051371014486222e+03
1.571095049522075669e+03
-1.285801917354674515e+02
-8.770808074703321608e+02
-1.276832087335233865e+02
1.054958163504242492e+02
-5.444782723367312656e+02
-2.162292875171010564e+02
1.360214572772295924e+03
1.521300247205444293e+03
-5.069420413900635936e+02
-1.379798918449251460e+03
-5.903856202390795005e+01
1.410825807287864677e+02
-1.098683324770660420e+03
-7.782253814782171730e+02
5.129818022830553446e+02
3.816112672483874348e+02
-2.986010369494947554e+02
-8.517023554071224112e+01
4.983608219532122803e+02
7.677223698646764660e+02
4.161974598061269717e+02
-2.219928469803094799e+02
-1.089036241333486004e+02
3.606302208752824754e+02
-3.490473446714041472e+00
-4.674439501314090535e+02
-1.206874659179606084e+02
1.538983258068887210e+02
-1.170251288568603627e+02
-2.919397269774562460e+02
-1.853369519842760837e+02
4.061719411721598050e+01
1.626968413494925016e+02
-1.234516079797380712e+02
-3.821824069489441058e+02
-8.803633792149661019e+01
2.121358788630416825e+02
1.053911420612613625e+02
7.929640030244830484e+01
2.985349354299414131e+02
3.951731212734429732e+02
2.419696000261124311e+02
1.866254655637869320e+01
-9.385687794608594814e+00
1.219425341956998778e+02
1.083717742027599051e+01
-3.302089790903809217e+02
-4.749034774515494632e+02
-4.194626518252207461e+02
-3.762333466500632539e+02
-2.741523097607166051e+02
-3.093899791554660084e+01
3.144708537559484398e+02
5.926404988595701298e+02
5.286879252352076719e+02
2.361892664339551686e+02
8.396142145033462612e+01
1.940019847139445419e+00
-1.511911476377071324e+02
-1.741955883588928202e+02
-8.608290310748725460e+01
-7.790964139107640563e+01
-7.505747568610964038e+01
-9.638104465077498162e+01
-2.051849352375368483e+02
-1.330390096029587141e+02
1.132618500235508776e+02
1.249062097044690347e+02
-6.088125125155579020e+00
5.993929329465928646e+01
9.420023521859435789e+01
-8.363668493702431306e+01
-1.285312696301436688e+02
2.195408422138398308e+01
8.357446601853165191e+01
1.437080695223183966e+02
3.076548874887509442e+02
2.790060776473229680e+02
4.103606648038287830e+01
-8.711745891740147840e+01
-2.001019943682496773e+02
-4.366966549589855617e+02
-4.280013127999242215e+02
-9.628409963769719582e+01
9.678016677495496367e+01
9.356059146561975126e+01
1.449126406269730296e+02
1.439278791738643974e+02
4.284614071794038637e+01
2.932038310224251632e+01
6.280111102658223388e+01
1.191890852348799541e+02
2.708107448915507689e+02
2.330790764326727640e+02
-8.749373700795899822e+01
-2.176171583262795366e+02
-1.237423817679656111e+02
-2.149283860656754257e+02
-2.909576128845881726e+02
-4.255254010023413258e+01
1.451526470160989675e+02
1.318357313796794106e+00
-1.429019916578175469e+02
-8.248282227960757496e+01
4.066017115999389375e+01
1.388427679556781129e+02
2.400683211485665538e+02
3.249975499155066245e+02
2.768221852040326212e+02
5.514782573237718566e+01
-1.513994618210756755e+02
-1.958829312144397363e+02
-1.495654561548938091e+02
-8.013504078226718264e+01
-7.452281369007339151e+01
-2.181452623005135081e+02
-2.824771779041542459e+02
-9.594561705244352368e+01
5.278263759047166559e+01
1.093201209691269753e+02
3.559940767075834742e+02
5.029404617553328194e+02
1.539002661725278074e+02
-2.128657924473942558e+02
-1.498372747315870583e+02
-4.421886217915599104e+01
-1.183203374517471644e+02
-5.390367800305464385e+01
1.258201763742174393e+02
8.217342148330597240e+01
-1.304847184623500880e+02
-2.001563018695414087e+02
-7.632480947059474374e+01
2.461933467118793573e+01
-1.522963847233239854e+01
-3.389002911725199141e+01
8.843186370283807207e+01
1.615835362204541639e+02
6.910069975891951799e+01
3.251985290281069041e+01
1.323271072542772515e+02
1.013331959336450439e+02
-1.060382598395819400e+02
-1.757042428427360790e+02
-6.086188544537882450e+01
-3.852603014267990034e+01
-8.714451283540351767e+01
1.631030691643443120e+01
1.302992182828460557e+02
5.098741924909349876e+01
-3.855962089744733845e+01
-9.634801953055738721e+00
-2.212366272875864226e+01
-8.320721539690485713e+01
-6.172887112622623818e+01
6.106660205567711941e+00
6.040446623595237696e+01
9.943361973961032163e+01
9.659186725497951898e+01
9.673784886468401112e+01
1.008393065648469644e+02
-1.055005720349306486e+01
-1.435226943972015476e+02
-1.247395763837665470e+02
-1.012012538686189487e+02
-1.477642058581642459e+02
-5.394319386073393474e+01
1.158034636707290161e+02
1.191462939518904989e+02
5.759743870920024733e+01
6.709668705846678449e+01
5.248210884739309279e+01
2.284786773514829505e+00
-3.051119457507553889e+01
-5.251454292859929751e+01
-2.412795831387941448e+01
9.773941498208772449e-01
-5.870113520219161529e+01
-3.506100680692118488e+01
1.092537964989518571e+02
9.793681057771817677e+01
-3.440616262892822164e+01
-3.063193156519263383e+01
-2.468783463362136743e+01
-1.413414762500975428e+02
-1.323622788584853822e+02
3.634447122341676106e+01
1.153330784519918524e+02
9.368812097727992239e+01
8.756211308338234289e+01
7.476560146271465612e+01
3.428029705885118261e+01
-1.761855022548139615e+01
-6.054149895972182804e+01
-4.764783672389062730e+01
-2.973876800204207882e+01
-8.265330459412810171e+01
-9.483943089002146110e+01
7.748919877138698453e+00
6.795752146751145517e+01
1.333627005114736974e+01
-2.837091596592394538e+01
-1.683537934715009499e+01
-3.292576848290821090e+01
-6.057516984210641908e+01
2.079734249120513212e+01
2.107305825058744233e+02
2.992844531742543381e+02
1.729717802267827267e+02
2.234784386180763249e+01
-4.948659697255642698e+01
-2.181836803679505010e+02
-4.267672449631262452e+02
-3.625008178114941870e+02
-1.088993602509339240e+02
1.544187672294795810e+01
1.054494238992878934e+02
3.172345076520072098e+02
3.975659024478219408e+02
2.268209752300288358e+02
6.391913398372577859e+01
-1.916491503988163814e+01
-1.288364321478761667e+02
-1.773511120609930458e+02
-1.344162865177146671e+02
-1.176309792456073211e+02
-8.112187744643983933e+01
-1.186267280153704817e+01
-4.674401697680895751e+01
-6.455927855066806842e+01
9.182199418983582007e+01
1.851164634834145204e+02
1.027958449966257461e+02
8.014112842482423105e+01
9.360833185180894134e+01
-2.156357237310010433e+01
-1.182102634506511549e+02
-1.025806763210333941e+02
-8.542105030032483626e+01
-4.997585951441693197e+01
2.874326426522818778e+00
6.598375552452250048e+00
6.660478456027138350e+01
1.544233888011306135e+02
6.618990527388773160e+01
-5.699129866062404659e+01
-2.756936632211484550e+01
-4.329241163518607038e+01
-1.242689140323648758e+02
-3.925134846192611349e+01
8.073495563317162294e+01
4.449269186825019773e+01
1.212607977440136864e+01
3.086567278372218226e+01
-2.031639128062820276e+01
-4.882092772456544338e+01
1.674827810952565343e+01
4.404466371869310137e+01
-4.600621998886746389e-01
-2.129727506182873498e+01
6.184348523544827891e+00
1.676232386325642310e+01
-2.731851608770813655e+01
-2.578544635124788087e+01
6.216167083191776044e+01
5.196925126578225473e+01
-5.866476879815498080e+01
-3.142557704038556921e+01
4.497907800384794541e+01
-3.400140200068410934e+01
-8.326288792424631424e+01
-9.212709494141666511e-01
2.447642508605587253e+01
1.259152974178032558e+01
3.523629938355234259e+01
7.008304359140163697e+00
1.258565776113179702e+01
6.973658004379015551e+01
-1.125086288532715528e+01
-7.371646211080367550e+01
5.736294731526852786e+01
6.147774436903223716e+01
-9.388387069601091639e+01
-4.368112004329922371e+01
6.352714856031258250e+01
-2.359761231893804023e+01
-5.840638888108755111e+01
4.958320304638743181e+00
-2.430323772414674366e+01
-2.157568410735925823e+01
3.529194517964584321e+01
8.484376907535400747e+00
4.797436530866961135e+01
1.161771255080840035e+02
-2.939442192285662259e+01
-1.222009982849487670e+02
3.180414975179515125e+01
5.907733617591129871e+01
-3.987590369415009661e+01
4.385662189664910215e+01
8.049379085452193294e+01
-8.007033159144907586e+01
-1.156439078633306394e+02
-2.811987920217691084e+01
-6.992232300271253642e+00
5.419568309184183619e+01
9.931798030028983248e+01
-6.835129673953407092e+00
-5.701510901289764632e+01
-1.054722022451479546e+01
-5.795582545300369759e+01
-5.798806896755919382e+01
7.916456949252669517e+01
8.384905712279361012e+01
-3.345718845809789599e+01
-1.479124934542192094e+01
6.853724173484117443e+01
7.133614565438963950e+01
6.835716957684246609e+01
6.272819769764073072e+01
-2.638828234574579668e+01
-1.409298752924210589e+02
-1.722029068808658678e+02
-1.136124621770542404e+02
-3.255433421265851024e+01
4.139191284513112379e+01
1.066087341876269790e+02
8.122248791206087049e+01
-3.864817977016611650e+01
-5.780006789830411407e+01
4.747754818669401544e+01
6.738583583771797691e+01
3.112285422884556851e+01
9.078513907187848986e+01
1.195721529271800847e+02
1.767753570915511929e+01
-5.815336554457675078e+01
-3.426265903063610807e+01
-9.628304228082539495e+00
-7.279376424883618313e+01
-1.940595535524820434e+02
-1.870241650259330584e+02
-1.655504855285332155e+01
4.688647053841621215e+01
-1.333902296616057548e+01
8.174188476229319633e+01
2.057238814164307712e+02
8.382357338554825787e+01
-4.179834017811145230e+01
6.729056361508551731e+01
1.637682163348668496e+02
6.609991887675619182e+01
-8.170856466015324315e+01
-1.515313715941792623e+02
-1.442828970965097426e+02
-1.151856362881750897e+02
-6.906338294647136422e+01
6.985650628067905643e+01
2.139733235599821910e+02
1.477001706830053251e+02
-6.500740695710358352e+01
-1.762821461796323774e+02
-1.398611531501336174e+02
-5.431767970996629202e+01
7.692715792444045242e+00
4.661110349239374528e+01
1.158296812305347601e+02
1.243564859077141307e+02
-3.809588828317064468e+01
-1.320709100147171853e+02
3.969254636019579863e+01
1.956228702371560644e+02
1.627045255341683117e+02
1.446752762766209059e+02
1.303184819239359058e+02
-4.879875094361359800e+01
-2.748394670696631010e+02
-3.870884278927179594e+02
-3.644702643014132377e+02
-1.970267823267024596e+02
-3.588449052531255568e+00
1.026542959201057954e+02
2.448842117360301529e+02
3.930630297632117731e+02
3.079417289941274021e+02
1.115871827693939480e+02
7.036847477100194226e+01
3.512065650063479438e+01
-1.424760137377280387e+02
-2.446576296373941375e+02
-1.747098284570440114e+02
-1.102723688011631680e+02
-9.546032780053141664e+01
-3.156398477215868326e+01
5.467824793395386251e+01
6.580677487289972305e+01
1.883869050668671719e+01
3.038755553216711647e+00
2.386861744899603011e+01
2.970490560594220852e+01
4.121111937011824722e+01
7.739766330261029736e+01
6.975762793949881768e+01
1.325846510507961895e+01
-7.797835613105771557e+00
-5.106533658240555162e+00
-4.074133267283009019e+01
-6.460180481160371357e+01
-2.349844076561904771e+01
1.195508997985641919e+01
-1.769486819867181993e+01
-4.643619802308446509e+01
-1.190006781074791498e+01
1.410012073232761942e+01
-3.368531723039894388e+01
-4.789582361565465618e+01
5.274888621006731881e+01
1.232266188749988487e+02
5.904994443756283573e+01
-4.310498118225382314e+00
1.199966246584218865e+01
-1.322623632721484377e+01
-1.017814258059493255e+02
-9.930014086882957258e+01
2.092533272353083973e+01
8.729367856310054208e+01
2.891297432251831623e+01
-1.106554390385175068e+01
3.310019616897785966e+01
2.185028585739846463e+01
-7.036531408278068511e+01
-7.142496542823359107e+01
2.291014300784794955e+01
4.460927042333847936e+01
1.094450778422035242e+01
3.734624229663936035e+01
6.850240904226905059e+01
2.860398985395031346e+01
-4.206525308782823203e+01
-1.035305765335905335e+02
-1.122569665424268663e+02
-3.946165834652838100e+01
2.047839394564153892e+01
1.885833680507773380e+01
5.568414767896480555e+01
1.075551856695312409e+02
5.170122897697478948e+01
-1.880065253579899220e+01
2.312742430453486975e+01
5.844348767913965048e+01
-5.199638189322953963e+00
-6.391261229401748523e+01
-6.921608719071375049e+01
-6.449510006503585657e+01
-4.759796257587084511e+01
-2.024086390272282188e+01
7.425439479896193795e+00
4.874957704123972491e+01
5.660569857523621096e+01
5.774725646979920413e+00
-1.364379912066273626e+00
5.231642847198163082e+01
4.287781547917194302e+01
-2.124350408029749104e+01
-3.416768526067193079e+01
-2.033664683324844091e+01
-2.675404705966294117e+01
-1.633062724290395451e+01
9.964309457171104611e+00
2.010862648820358345e+01
1.945136859957113629e+01
5.317581994709954962e+00
-7.123738619142391926e+00
1.036174035281015371e+01
7.327405193854852783e+00
-3.884312381016966498e+01
-4.416504329404948948e+01
-4.710114181494312824e+00
1.163127269200884228e+01
3.730256235818813337e+01
7.272666171912905497e+01
2.664110915268711821e+01
-5.203451598485993657e+01
-5.300596962679075119e+01
-2.851411647405831218e+01
-1.310191733712941442e+01
5.069115010803322718e+01
8.543113203121421861e+01
7.693609640997627785e+00
-6.272904542430407560e+01
-5.083003797050137251e+01
-3.163602356716531006e+01
8.048755551272779307e-02
6.564717721997593003e+01
6.895562141662199451e+01
-2.764212138965872256e+00
-4.276964374844700956e+01
-2.890055222561798232e+01
-1.500466907248036552e+00
2.454852810281591502e+01
2.822577154297928814e+01
1.058222725640845496e+01
-2.430468244707966008e+01
-9.316554468216116902e+01
-1.034263884211973874e+02
2.468490527025944914e+01
1.170586018300358120e+02
6.497917356564801139e+01
5.167390485759662511e+01
8.954762123017606257e+01
-1.639227301109558610e+00
-9.832328980856173928e+01
-3.478039987026628665e+01
1.247360446150879199e+01
-4.919951289488756174e+01
-7.955299049312652926e+01
-6.227573981485369359e+01
-1.747756712758038589e+01
7.151892015661810831e+01
7.581843706278105799e+01
-3.062529132706158563e+00
2.976028575932874531e+01
7.379297160338204264e+01
-2.733298858977018853e+01
-3.180011838824787418e+01
1.240844005009002018e+02
1.007684454419835873e+02
-9.349809920783111750e+01
-1.441590494356641443e+02
-8.832434274614962533e+01
-8.293969851066360377e+01
-4.166392345026138599e+01
4.792833033433166889e+01
7.156054351047596640e+01
6.235206807062073153e+01
8.177333669493744139e+01
1.018245391634612389e+02
1.265232680880704521e+02
1.300106500263487987e+02
2.095839060422350641e+01
-1.802496601782380026e+02
-3.500427150675363350e+02
-3.866575446326968404e+02
-2.600814430806918267e+02
-6.339570829333476354e+01
1.356489356671318376e+02
3.888212411308813898e+02
5.876692024530703975e+02
5.082307723036985863e+02
2.235519648733380222e+02
-4.731244702501295052e+01
-2.674494271178683675e+02
-4.029735365367993154e+02
-3.849685006103536011e+02
-2.786995074129412160e+02
-1.414171222438110362e+02
-2.671458614945978383e+01
-5.659392518299023322e+01
-9.879091108304498903e+01
8.277261169678466501e+01
2.990808923552011152e+02
2.862052113011702659e+02
1.535329960591613769e+02
6.116219263618915392e+01
7.868108140672654827e+01
1.798478960670078948e+02
1.296651088705152404e+02
-3.838558102178858888e+01
-2.982249889114445196e+01
-7.530064628757307332e+01
-3.394425519769614539e+02
-2.188007343229576804e+02
3.091273050532669799e+02
3.605735933225386134e+02
-1.745649978858016027e+02
-6.565691686108085605e+02
-8.145931896292501051e+02
-5.699176020686729771e+02
-4.796548094871268830e+01
3.476531953622894093e+02
6.606067340787731155e+02
9.258591384575757957e+02
6.718588466746689392e+02
1.787566214643250930e+02
2.224533682315709484e+02
4.329750744469856727e+02
1.324231746718627392e+02
-4.314580326778624340e+02
-7.826332152574074144e+02
-6.310533346205587577e+02
-1.900534547864820354e+02
-3.318491887115371242e+02
-9.241859239697489556e+02
-8.020518451632627830e+02
-1.790063271183435916e+02
1.318766299431834454e+02
7.598647195523873279e+02
1.877641424481293825e+03
2.002585014031988294e+03
5.417999359999488433e+02
-1.161457631123513011e+03
-1.624115575208289783e+03
-7.424788715987881460e+02
2.600519615024739437e+02
4.394410014452302562e+02
1.381157651341780195e+02
-7.650223052450354544e+01
-1.298687651272639130e+02
2.332107824199226442e+01
6.815865706521326501e+02
1.858992203420130181e+03
1.808359326564169578e+03
-1.439735443836286322e+03
-5.354181257480585373e+03
-5.397526047589542941e+03
-2.178455215535493153e+03
1.495519867037315180e+03
5.660194728163977743e+03
8.673597758828200313e+03
6.891411602749573831e+03
8.248345765152290596e+02
-6.116263704231324482e+03
-1.004655775748398082e+04
-7.138956557848915509e+03
-1.241170607639114678e+02
4.031333555841153157e+03
5.640431691712763495e+03
6.542391916551574468e+03
2.245176676024636890e+03
-5.337497431633362794e+03
-6.491352379021887828e+03
-1.039816809671971669e+03
3.174173706190036683e+03
3.185083535186939571e+03
2.387212535789437595e+02
-2.742043558667231991e+03
-3.274807978380777513e+03
-2.944768722499060459e+03
-9.491409752592998075e+02
5.501294275437772740e+03
9.416533809864156865e+03
3.787868236627828537e+03
-3.985750270387195087e+03
-5.787194585174679560e+03
-2.899077412335717327e+03
8.463750414031052287e+02
7.561241576860223859e+02
-1.709118242086290820e+03
7.866927602311347982e+02
1.226525920864034333e+03
-7.164256914184978996e+03
-5.359159872546735642e+03
1.048910869910892143e+04
1.067067415398465710e+04
-3.808893022205695615e+03
-2.848427690006483317e+03
3.788454838047511657e+03
-4.753868302584805861e+03
-8.663340469127586402e+03
2.211337298866105357e+03
5.798173156943821596e+03
3.055191729642598375e+02
-5.072373505975117496e+02
7.318602545154798023e+00
3.134961067018280687e+02
3.171511053085938329e+03
5.688550058717170259e+02
-4.626370179162201566e+03
-1.050761987491567197e+03
2.069646862036088351e+03
-3.125518967440925280e+03
-3.177814396603489968e+03
3.679535410159769071e+03
3.271796251756647962e+03
-3.027349280623578579e+03
-4.047555333308055197e+03
3.305502960487057749e+02
3.778319226065514613e+03
3.098678680119193814e+03
1.921107635768526279e+03
4.467093873137871924e+03
4.120504389545124468e+03
-3.709124005104133630e+03
-7.881551553559534113e+03
-3.779595784529259618e+03
-2.141020008553825846e+03
-3.558156325918685525e+03
1.677784035179091049e+01
4.411015550404897112e+03
3.694529993489161370e+03
1.847622746389701433e+03
1.104603008486307090e+03
1.198878057690474179e+02
3.965664655130505167e+01
2.750905972909534967e+02
-5.994141869898131745e+02
-7.429332398495554344e+02
-1.487366144015928171e+02
-7.191399277881815806e+02
-1.132289760572847172e+03
-2.829307015429210992e+02
3.936066993866310213e+02
5.321815002870030185e+02
2.556165523542127005e+02
-5.054106049885019161e+02
-4.118007408461966179e+02
4.704025895859309117e+02
2.182060025743859342e+02
-4.831257667713265391e+02
-6.953288554216899797e+01
1.441234573130079752e+02
-6.015724802258228010e+02
-6.148537291572113190e+02
4.013318593440940845e+02
9.601857387667562307e+02
9.192635351365283896e+02
1.138100500695636811e+03
1.265360142791296084e+03
4.851270340927820826e+02
-6.370166060370320338e+02
-1.243297518906059850e+03
-1.693994560878647917e+03
-1.941089613222666458e+03
-1.057585763410153959e+03
3.006958730950499898e+02
6.990074566383009369e+02
6.258012863480016676e+02
8.300383326724768267e+02
6.878498877693091345e+02
2.400092282454341444e+02
2.577187123851541060e+02
4.665762627312942072e+02
3.450034178155919449e+02
5.600314206145536211e+00
-3.740631886430367103e+02
-4.691824541052134236e+02
-1.676184174118339456e+02
-7.968450038199462426e+01
-3.251540766539380911e+02
-2.997233297788409914e+02
-1.092419792132384231e+02
-1.717971284649686083e+02
-1.732163950716333716e+02
9.742742228965421702e+01
2.594098899410460035e+02
1.423958440708551052e+02
1.536996270007229715e+00
8.149514952261792189e+01
2.967897890207039495e+02
3.272510155266477341e+02
1.532478856599813923e+02
2.094434977997167380e+01
-8.872273709989828205e+01
-2.228946406041872592e+02
-1.984779320984374635e+02
-4.494229352427841206e+01
2.385258715680776476e+01
-9.018490237725540482e+00
-6.636156913365046250e+01
-7.062558659915873704e+01
-1.574982649417713709e+00
3.331524494940355741e+00
-4.505703117347372455e+01
-1.083974720995057162e+01
-3.078007924312116828e+01
-1.205526365597988843e+02
7.921618986052588518e+00
2.185951127635092917e+02
1.765941214980106793e+02
7.362807042257539081e+01
7.279905287954616711e+01
-8.231759050427696067e+00
-8.557982289959670652e+01
-2.279538764210208157e+01
4.185157622122298804e+00
-1.355552195439933882e+01
1.919924089217938956e+01
-3.421963282509864968e+01
-1.118640789841822851e+02
-2.394527703935340668e+01
2.751806495912805062e+01
-7.783905862158842126e+01
-8.138479082387759433e+01
4.881177874303328501e+00
-2.440429104641189895e+01
-2.627562439214644030e+01
1.021531767468790832e+02
1.486700048909488885e+02
8.561196169402629153e+01
7.277794092784620261e+01
4.983579295382777730e+01
-4.916566922607903223e+01
-7.612623884506180616e+01
-1.013384943035823049e+01
-8.409958922003127668e+00
-5.411442324514749913e+01
-2.649511603763117051e+01
1.022101799017641355e+01
-2.529961555024028286e+01
-4.526662037926760007e+01
-1.750831185026275350e+01
-2.360906523213662922e+01
-3.867905300444720496e+01
-8.904040478120096580e+00
1.090062610505853158e+01
3.707960992781326581e+01
1.100841714229307513e+02
1.139325764892854949e+02
3.844190749871947332e+01
3.886895288262513759e+01
6.662787124664399130e+01
-1.947716575062651279e-01
-5.855786204197193001e+01
-5.563686787453664095e+01
-1.008741672863466476e+02
-1.718992384860568166e+02
-1.599030715351951528e+02
-6.872094270296106799e+01
4.546559129194454840e+01
1.183705479486335577e+02
1.175043998809428984e+02
1.067864714811025664e+02
1.049000398362561270e+02
5.859120847105825192e+01
1.650893637891456578e+01
2.172938247451043026e+01
-1.923083498840525207e+00
-5.412100092738256052e+01
-7.224382893743691625e+01
-8.493390727681959618e+01
-8.578841483350568353e+01
-3.634944275521303325e+01
-1.228451908889169708e+01
-3.200197159912803357e+01
1.383979362369113786e-01
5.441622253027410494e+01
5.373425033742363155e+01
4.434970361072770828e+01
4.567079026109527007e+01
2.647257299228358107e+01
1.118730023895666115e+01
1.710135953009106924e+00
-4.279047755168233103e+00
2.890675285599369104e+01
3.351015264804536287e+01
-5.288197021217797555e+01
-1.059610837795275700e+02
-6.228725052521382821e+01
-1.856791141013819413e+01
2.101587833168314745e+01
8.405521403035555750e+01
1.010706032936429892e+02
6.427201267247106387e+01
1.429330198529674245e+00
-9.144606191806924755e+01
-1.169233745621284868e+02
-3.447506231082279982e+01
4.964636697653085129e+00
-1.634155006561903889e+01
8.209916989654184150e+00
3.655342166041676943e+00
-6.289908914186570854e+01
-5.163079617697521684e+01
2.898027290201221717e+01
1.081880506151004226e+02
2.154937272494459819e+02
2.429395008878898921e+02
1.135815877047296567e+02
1.557987387462560491e+01
-3.532160204139961479e+01
-2.082193300905390458e+02
-3.461472838300965691e+02
-2.758646126318129745e+02
-1.883958770915078276e+02
-1.506090566056647901e+02
-7.098366409192986559e+00
1.929072725842290765e+02
3.290604853825265650e+02
3.708309226088077253e+02
2.562867927789443456e+02
8.699596753389208459e+01
2.904572381224911481e+01
-6.454819114668092084e+01
-2.330350151838237593e+02
-1.883106347441492403e+02
-3.837207340022567337e+01
-1.256896746653428920e+02
-2.193880612586329732e+02
-5.972661130014422071e+01
6.088298505980373676e+01
3.582312628465057713e+01
9.735806794118725804e+01
1.623359269767705939e+02
8.411266151422233861e+01
1.586690948840888815e+01
7.723670213755300828e+00
-1.370489720063294392e+00
4.815918213291211458e+01
7.611247488237637526e+01
-3.289099539104894632e+01
-1.077215543431888847e+02
-6.365373587757158447e+01
-6.504524450050151074e+01
-8.535010202018965231e+01
-3.991142634617411478e+00
5.887543188348374201e+01
1.672536309662015341e+01
-3.815844372220849490e+00
6.792789087808394299e+01
1.422738071539204441e+02
1.066205136556443875e+02
-1.300005375705314137e+01
-8.648484371643762358e+01
-1.382184552736869421e+02
-2.211574576401563377e+02
-1.468955787238993764e+02
9.125338212602356691e+01
1.646633337516164772e+02
9.236733827121150853e+01
1.248378583673405586e+02
9.927834448751508489e+01
-5.595221327481506535e+01
-2.969953771977268886e+01
7.930617491402510666e+01
-3.002600748861872759e+01
-1.211239513196161397e+02
-4.617953120860649818e+01
-6.449705315405270767e+01
-8.125465835837177053e+01
7.471670339796249038e+01
9.804330263266108147e+01
-5.982145863170290312e+01
-7.489485494701705193e+01
-3.539758817883214448e+01
-8.262216769393657501e+01
1.808083219340051784e+01
2.041530194564316218e+02
1.772559823225262789e+02
6.867900219192094369e+01
4.643891911280131524e+01
-1.880025206265418447e+01
-9.546716424610657725e+01
-7.786164577638868423e+01
-7.504637254782515754e+01
-9.857987872466553370e+01
-6.946971196628011569e+01
-5.457721007326551188e+01
-1.958063083470958787e+01
1.090021669558019397e+02
1.411328705097832028e+02
1.121497026352164461e+01
-4.381874760492224397e+01
-1.188126858147731291e+01
-3.981618326114494266e+01
-1.014861866746225871e+01
1.322472553754876685e+02
1.697024410778707022e+02
5.730996783918165960e+01
-4.184427758746780768e+01
-9.671743164183550334e+01
-1.348350480781409146e+02
-1.113532414028249775e+02
-3.382686307804040382e+01
2.541533817238851611e+01
2.824877737382463749e+01
-4.315432141866447857e+00
-2.582584116801109531e+01
-3.147409350738289291e+01
-2.201954715475492463e+01
4.625231600905891582e+01
1.236796204615433226e+02
1.134109687559238182e+02
9.294484905241438355e+01
1.066097299077792115e+02
1.574872205178266604e+01
-1.192177647322221787e+02
-1.153342244368428595e+02
-1.006236030177071115e+02
-1.563808319766515638e+02
-7.827366228176084917e+01
4.928034671311765180e+01
4.718989968758497966e+00
3.922810235335235873e+00
1.385501463163789140e+02
9.720955985982219261e+01
-2.856330707151555259e+01
5.250893644488348144e+01
8.400520873131593191e+01
-7.926326053740328348e+01
-7.622567359900867245e+01
7.194467142030404716e+01
3.764607711535645507e+01
-3.465294222074552977e+01
2.090739686404118203e+01
-6.046072420684896365e+00
-1.139835902263961458e+02
-1.077006716737491274e+02
-4.913629848565662428e+01
-5.603610472449616076e+00
7.656440286396936301e+01
1.182739338146328549e+02
8.418320789022033068e+01
7.166125881942527087e+01
3.577904468347367128e+01
-6.835057017757706888e+01
-1.138895798565869626e+02
-9.468286479737857064e+01
-9.825810621510268561e+01
-4.033067141886986917e+01
9.782062283924487645e+01
1.357896064898135080e+02
6.286404476223192006e+01
3.822643832570970091e+01
2.814758024032200012e+01
-6.209378123025939544e+01
-9.532805025201245996e+01
3.031841053266242625e+01
1.153844804480657444e+02
2.086838079482051711e+01
-6.052880721842525702e+01
-8.645213133416799423e+00
-8.877933617532328014e+00
-1.238322925999543997e+02
-1.487485877794028397e+02
-5.057843323081490183e+01
-2.611592908436008642e+01
-7.876067197431990508e+01
-3.019483712159640731e+00
2.037649353937064234e+02
2.900053566808988421e+02
1.741335913890321763e+02
8.384887661231341838e+01
1.128996849645541403e+02
6.054742450380151553e+01
-9.507295724200065479e+01
-1.471460433322327219e+02
-1.556895193864374107e+02
-3.029787681088581053e+02
-4.228047178364134879e+02
-2.944261137171852738e+02
-2.213760649530403768e+01
2.269765915544560357e+02
3.997849580633883875e+02
4.351170434400386284e+02
3.106007487303259609e+02
9.886753419435551393e+01
-8.934002069467210561e+01
-1.523463527101714874e+02
-1.154050986595322144e+02
-8.893764031535390302e+01
-6.471190546874308325e+01
-3.492166026395719314e+01
-8.387396594040762920e+01
-1.262625252543256806e+02
-4.263688978527520135e+01
1.019707032532826041e+01
-3.701970813728141252e+01
3.199712734394843494e+00
9.005774623987662153e+01
4.913300149917787252e+01
6.726593927132124007e-01
5.406921493388961153e+01
9.712353928438064088e+01
1.131161734676648507e+02
1.228059386881176067e+02
5.537622534087037707e+01
-3.056909208241807363e+01
-7.433956533209916984e+01
-1.630904220034569221e+02
-2.065490613735337888e+02
-6.127403808727765977e+01
6.561393180084313315e+01
7.799079892464613195e+00
-3.868277797117971062e+01
9.283566557838801359e+00
1.827821988486102001e+01
1.865140013153507326e+01
8.730545008840969956e+01
1.296558531866890291e+02
7.291185459146453240e+01
-4.129301030975393871e+01
-1.253611105700107657e+02
-7.647061470346049816e+01
6.172402376771626109e+01
1.077202100210533047e+02
5.251354153181849682e+01
1.707917746604990583e+01
-3.543591306139995112e+01
-1.339515915347242583e+02
-1.224727423307512595e+02
1.186294407814598806e+01
5.474441299477720690e+01
-1.839986824413740507e+01
-3.266027425063287382e+01
2.674799500271189956e+00
-1.274670335666770349e+01
3.965879971330480647e+00
9.761394909011583820e+01
1.203693974301132101e+02
4.375041842237524747e+01
1.227335262529436832e+01
3.582005387716318268e+01
8.482019500779303556e+00
-6.639008405218574183e+01
-1.094673613527332918e+02
-9.658287120068413856e+01
-7.322757685240422632e+01
-5.772102335213738655e+01
1.852240306180859264e+01
1.248775604322642181e+02
8.589193148522812749e+01
-4.678016271402530180e+01
-3.546054731763697987e+01
4.562607435028681380e+01
1.943961029904300375e+01
2.852151588608355226e+01
1.114939372276192131e+02
4.775039020620965147e+01
-7.858638310437710572e+01
-4.895222926148415610e+01
-1.038909280839921934e+01
-6.360910278826891329e+01
-4.033006586849629826e+01
1.435765775054853677e+01
-3.534691425726993685e+01
-5.527557351913744554e+01
1.077076138635079161e+01
2.483733147529225604e+01
7.332329042918449780e+00
2.623974600913442501e+01
2.967730462829997862e+01
4.714661565554803957e+01
1.051282092494858631e+02
9.072263758649933152e+01
8.631109593275906988e+00
-3.357736144230967312e+01
-7.959553732669694170e+01
-1.475507547033938920e+02
-1.128532010871944493e+02
4.757487331467232572e+00
5.138355171815979361e+01
2.149857097053899935e+01
3.988031397426039959e+00
8.950168066312677695e+00
1.463315100111321065e+01
2.342427624531922703e+01
3.341165666582952554e+01
3.600571079020011922e+01
3.248958544016034011e+01
3.188161145573673849e+01
2.492797372320839955e+01
-2.326357807076566697e-01
-1.081195246776139562e+01
-1.545610750109804599e+01
-9.988709378590527876e+01
-1.922395769370170342e+02
-9.360439332501955789e+01
9.467783310778798977e+01
1.030990872140638146e+02
4.360310927308344731e+01
1.198078923823872088e+02
1.093191598123276265e+02
-1.025605186062166325e+02
-1.461765298415157872e+02
6.233768478742393881e+01
1.243702969620795500e+02
-4.721506822712098206e-01
-1.557578856287756075e+01
1.147693868776801374e+01
-9.059717220867486276e+01
-1.508277358838387840e+02
-6.773679435293588824e+01
7.822724374167924211e+00
4.336683189636377733e+01
7.870664040471386613e+01
4.795324786181380006e+01
-9.171725804078899813e+00
2.362194545767279763e+01
6.873445637792829643e+01
2.597794799111128228e+01
7.046778606382015475e+00
7.714235216935784933e+01
7.393382968731786775e+01
-6.755301590939255618e+01
-1.452818980751602567e+02
-7.182759023326326542e+01
-3.662294319722035141e+01
-8.472261112766382496e+01
-4.219120931850434886e+01
4.750954088673869791e+01
4.288473157686934378e+00
-9.325073344539241305e+01
-8.297664199525713968e+01
3.728360406778415381e+01
2.070533989755281823e+02
2.991221018216454013e+02
2.429402002700592789e+02
1.857286346300718378e+02
1.079349386314810317e+02
-1.769574068630319630e+02
-4.070388371252242905e+02
-2.996808012220130308e+02
-2.227357935425809501e+02
-3.371722660906733608e+02
-2.041501472191568496e+02
1.256036731017908608e+02
2.285029811604826762e+02
2.894769091929704246e+02
4.901316323838530025e+02
4.528646542226064184e+02
1.254496037340497026e+02
-1.190409637490888741e+02
-2.311749461818586724e+02
-2.936735183502538007e+02
-2.238955854997402071e+02
-7.813440546470013714e+01
5.653888067562411024e+00
-1.369978477176692078e+00
-1.006142330510413530e+02
-1.690511874399314252e+02
-6.671332595964238976e+01
6.637660952057531460e+01
1.174135287533828205e+02
2.046108462393502805e+02
2.627361743552337430e+02
1.386822401013744752e+02
-1.759322040478601412e+00
5.204756758762302482e+00
3.307335102702923280e+01
-2.231238439928854689e+01
-1.085830834087028052e+02
-1.566127811552065907e+02
-1.483511900175621179e+02
-1.432775795637401757e+02
-1.281799403236598209e+02
1.347578588444092951e+01
1.581778169140427224e+02
7.325131541330711116e+01
-6.661378456321180863e+01
-5.908098404140327276e+00
8.263566581933257282e+01
6.039334673287496003e+01
1.250769080246847267e+02
2.581923250175295834e+02
1.690231399191371224e+02
-9.400608482239989883e+01
-2.038828498979216306e+02
-1.450527600439433513e+02
-1.397516468454765004e+02
-1.480405009005149566e+02
-1.170735190293474659e+01
9.553897939303918463e+01
-1.137972617657275798e+01
-7.140338731524106208e+01
9.425417122145603344e+01
1.673331826588442937e+02
1.934318778575326547e+01
-2.969109299917208133e+01
6.355733112044863731e+01
3.157346442822363031e+01
-7.007684399698962352e+01
-2.762530838252524745e+01
4.629983205485495290e+01
-2.938302837457191785e+01
-1.281661107266135673e+02
-5.921073670023599789e+01
9.755997340459742873e+01
1.544872908952755211e+02
9.695097867654027368e+01
7.930675429702244372e+00
-6.624846199125106239e+01
-7.647750195622609226e+01
-3.612897378057834885e+01
-3.368675835724875611e+01
-3.456595906479613944e+01
-3.776751551467727452e+00
-8.193338690101400346e+01
-1.992799452278326555e+02
-6.502513519977333090e+01
1.819563001567601077e+02
1.713525389438771640e+02
1.938849121192545510e+01
1.172061738965486910e+01
9.635241288891411671e+01
1.695551305975554612e+02
1.955584370762767321e+02
9.350544640940289298e+01
-5.829827943391556033e+01
-1.507624881734178643e+02
-2.550488238637589689e+02
-2.574472695459710962e+02
9.995665163568482114e+00
1.813393946565270198e+02
-9.273122320084388548e+01
-4.122818172929903540e+02
-3.263752562186072623e+02
2.227848550503781500e+00
2.866098401972043348e+02
4.644734762527396015e+02
4.896586052724357501e+02
2.962249928385494400e+02
-6.781097185703146124e+01
-3.467165883024804884e+02
-2.643090225618785780e+02
1.266451478956849996e+01
7.610125123150297100e+01
-1.474463048422942890e+01
2.348167322373316068e+01
1.009339019912629567e+02
1.107889148315063181e+02
1.356362769796313614e+02
3.758112970415734821e+01
-2.379259044456192953e+02
-3.596626415635544163e+02
-3.371605121185509688e+02
-5.358528076723722506e+02
-7.415848273702084725e+02
-4.983692087532004393e+02
2.479164371076392115e+01
6.327266960138554168e+02
1.484851120068457021e+03
2.111478374113395148e+03
1.619236034095630885e+03
2.118482600197710042e+02
-1.065107139886286632e+03
-1.676477044322017946e+03
-1.438384219522147987e+03
-4.191478541863206715e+02
2.540079544901043107e+02
-3.663387836402731068e+02
-1.263124163084091833e+03
-1.204191833171399594e+03
-4.821523548330677045e+02
7.591952156363699942e+02
2.562205304158677336e+03
3.182273915232839499e+03
1.256260119184547648e+03
-1.328736696116260191e+03
-2.249114165983048679e+03
-1.646386833453610961e+03
-4.003563214736503824e+02
9.954676080843343016e+02
1.641718167777097733e+03
1.100976412492725331e+03
2.272352276351263640e+02
-9.036264031373983130e+01
1.017273965108343390e+02
1.102356545429350660e+02
-9.132660934300133704e+02
-3.104434698526241846e+03
-4.834570841028437826e+03
-3.703044601580771086e+03
2.146163968536811240e+02
4.110571782737021749e+03
6.395545948550615321e+03
6.908190284640771097e+03
4.235522664971825179e+03
-9.420731111088019816e+02
-4.271580927009419611e+03
-4.724064880155806350e+03
-4.619563657234331913e+03
-3.048768643236981006e+03
3.675525727767835349e+01
1.283740731037564274e+03
1.911763294735984346e+03
3.924711293029407898e+03
2.799011014476328455e+03
-1.596758481792440762e+03
-2.971672410723514076e+03
-2.508133426994477759e+03
-2.923795700275684339e+03
3.650264771208028378e+02
5.478081627393768940e+03
5.210344749524557301e+03
2.307738713152462878e+03
-3.239102297054628821e+02
-5.002683661695522460e+03
-5.703139656930113233e+03
3.047749890096509375e+02
2.225702406296906247e+03
1.107618893485770570e+02
2.661332172195710882e+03
2.037189340633692609e+03
-5.681197101029930309e+03
-5.282308325678404799e+03
3.112227447718156327e+03
3.821385943742110157e+03
5.868823234127212345e+02
2.741554766240941262e+03
2.660372301663704093e+03
-2.516847054343264972e+03
-4.037759910302661865e+03
-1.306424206393784971e+03
6.072653033113398351e+02
7.098955730134197211e+02
-3.371720788510950797e+02
8.836215516992020014e+01
2.171173394832274425e+03
9.123078226429051938e+02
-1.690602508572516172e+03
1.305229408809888447e+01
7.767830911501100672e+02
-2.463318230674675306e+03
-1.604538712756855830e+03
2.651939028878949557e+03
1.898801187050963108e+03
-4.567667078185867240e+02
8.537500560394970535e+02
7.227169158441236050e+02
-2.230560389141814539e+03
-2.151399968637817892e+03
5.132258003435962337e+02
3.029155748887769732e+02
-2.277506823862249348e+03
-2.007765216531305214e+03
1.183710587843999519e+03
2.061484358349270678e+03
1.451936136501696410e+03
4.362919942757152057e+03
5.957590798639284003e+03
3.164538262156078190e+02
-4.693037745923978036e+03
-3.685396286603247063e+03
-3.897680200662380230e+03
-5.438605401639780212e+03
-1.582733500421614053e+03
3.072628946636685669e+03
2.707960803112983740e+03
1.945394718925047528e+03
2.564736417036323019e+03
1.345311451168717213e+03
9.002158197137848816e+00
1.353622768140189123e+02
-2.493905624408056951e+02
-5.594784109879450398e+02
-2.033557364476525890e+02
-7.036302743568709275e+02
-9.983195697386263419e+02
-2.502925134399076228e+02
-2.738815262986590255e+02
-5.111154989134876132e+02
1.744979757229820905e+02
1.985388361931564134e+02
-1.370031532758585513e+02
5.514386369049827863e+02
5.296869701602386158e+02
-6.191961075943680726e+02
-6.772182123169276338e+02
-1.462715450056236364e+02
-3.012165294401067968e+02
2.318395760049250214e+02
1.520995002978344928e+03
1.656371735223628093e+03
7.046599739338078052e+02
-1.322416411006913393e+02
-7.292188107526953900e+02
-1.030336519954892992e+03
-7.678974100626772952e+02
-2.335788303306656246e+02
3.427252078621479114e+01
-1.798589607706794595e+02
-5.437983116963538350e+02
-6.073622944458151096e+02
-3.459489748401096563e+02
2.151475788590519755e+02
8.889903916151311023e+02
9.785449638560343146e+02
4.833536199719338811e+02
2.147025851366068423e+02
1.305818970429700983e+02
-1.353449032208431788e+02
-1.453496606551645129e+02
7.650367284251858280e+01
-6.597878565247042104e+01
-3.167632454621841021e+02
-2.813594824099882317e+02
-2.262881942603958123e+02
-1.642036207415030162e+02
-2.605185682652933821e+01
-1.176635343843426398e+02
-2.479369833506798102e+02
-3.284782389630093746e+01
1.576084742174272719e+02
9.716347694086937281e+01
1.740213211935767958e+02
3.171486904056593517e+02
1.760968835241821182e+02
2.114479982296275651e+01
1.326793951464414079e+02
2.126056054828903541e+02
6.116634406354247488e+01
-1.142676347871313709e+02
-1.818757150053417035e+02
-2.041693493082802888e+02
-2.011336760239347257e+02
-1.501379803296503894e+02
-9.164612698039341865e+01
-8.093069409937538694e+01
-8.466677938965607098e+01
-1.349578840855951611e+01
1.359571295831115947e+02
2.612844601610721611e+02
2.875910281351413573e+02
2.070028319397522978e+02
3.900756191202368228e+01
-1.217492664026802629e+02
-1.806235388810362679e+02
-1.861971734436656618e+02
-1.604383260504646387e+02
-3.107239429333148095e+01
9.108168091551929990e+01
7.229262338137169763e+01
6.863089338078654578e+01
1.263671467652421967e+02
5.203299686716117378e+01
-4.224414636994310968e+01
3.503065639299637013e+01
5.738814982216740646e+01
-7.429091973813623895e+01
-1.248340331887999781e+02
-1.371175336320832798e+02
-2.156155572407813281e+02
-1.467556506467652184e+02
6.266844980038492707e+01
1.712185096779042510e+02
2.138527353454418289e+02
2.342541045345878388e+02
1.556221353618222167e+02
1.043429446216810135e+02
1.057498824063359706e+02
-3.870514326837010088e+01
-2.485429465241311675e+02
-3.406030871215577918e+02
-3.879565675492840455e+02
-3.220870845549270598e+02
3.903562280847561539e+01
4.334000404523101224e+02
4.487215398373614335e+02
1.794558463886447157e+02
-1.305944406315498263e+01
-9.925385590936916458e+01
-2.162367294800771447e+02
-1.504761717270561405e+02
2.351895051577419906e+02
3.903052830893100236e+02
-8.244079291441422930e-01
-2.909154875023870659e+02
-1.686004044912885718e+02
-1.702495530583104255e+02
-2.810227168686922141e+02
-3.273106124904404624e+01
2.446201390224876775e+02
1.310910635079143276e+02
4.983903096289824752e+00
1.066973702026545254e+02
1.453758421482477843e+02
5.660930987003297332e+01
-5.234477128881932506e-01
-2.167244381912795603e+01
-2.012202594299877489e+01
3.070096908572090300e+01
7.534278660924890403e+01
-9.046869303376803728e+00
-2.297380581748323038e+02
-3.282671770163232736e+02
-1.836707512083349911e+02
-7.591095679473816915e+01
2.019357901315447634e+01
3.910524539988809352e+02
5.645094436650899752e+02
8.568657030019323884e+01
-2.745812133734734743e+02
-2.802778617806305661e+01
3.906068285644339966e+01
-2.382445863516823863e+02
-1.104724044112736152e+02
1.815886044947236257e+02
-4.728244293338599391e+01
-3.127713932571467694e+02
-5.227622226040211473e+01
2.412099050087898036e+02
1.698488996533133104e+02
3.946330378313020049e+01
2.219999175488278809e+01
-1.507781684575242842e+01
-6.595181878237461603e+01
-4.828223703737990036e+01
1.701355019754379683e+01
6.096153192864572645e+01
6.921488664712624583e+00
-1.125598391488766055e+02
-1.092732287776853468e+02
4.653581604355351686e+01
1.128149966757882936e+02
1.166512387801324024e+01
-5.055609540310167915e+01
-3.238371365090221587e+01
-5.299871435497099981e+01
-9.883935080320810584e+00
1.633210579603571944e+02
2.101239074632625830e+02
4.916651992234687896e+01
-6.607259782806717396e+01
-1.044367805785592793e+02
-1.960961408988615631e+02
-1.926060091595772406e+02
-1.735146086342497185e+01
6.144948115562947066e+01
-5.299149216333332468e+00
6.063789056429987312e+01
2.249432100812800286e+02
1.830043200414874605e+02
-1.980000876533633436e+00
-4.066533713963815444e+01
-8.483344124379865292e+00
-1.159973246467142474e+02
-1.888726072888964040e+02
-3.638211224831950830e+01
8.012875118575581723e+01
-3.597473934844973087e+01
-9.573861224370415357e+01
7.409924381106091573e+01
1.984004639918817077e+02
1.349940748167959157e+02
5.594903521958602965e+01
-1.743222220797799338e+01
-1.792037806594030087e+02
-2.841515122750668638e+02
-1.665535773622887064e+02
5.144169528883077902e+01
1.884878814780050220e+02
2.079004664966808775e+02
1.077527597214174904e+02
-3.998373352656958701e+01
-6.018307298505498437e+01
4.675887003575440559e+01
8.915650631725428354e+01
3.091618181583908154e+01
-3.365240021764920897e+01
-1.214140428212578939e+02
-2.240385299112720645e+02
-2.043639477791629986e+02
-2.579005476208872238e+01
1.620308072974535207e+02
1.876007326327778912e+02
5.349967460069481717e+01
-2.978984403513604562e+01
2.215004615909966290e+01
2.919678716681878683e+01
-1.059071678247791404e+01
7.270123981982746386e+01
1.253302976304103140e+02
-2.441803628566049511e+01
-1.445269723778425259e+02
-1.125145074186255556e+02
-7.453767896279828165e+01
-5.580459298470862528e+00
7.201214069257355277e+01
5.199226561419008519e+00
-1.431581354292746155e+01
1.328515495369622101e+02
8.458567208323098896e+01
-1.348238939871661444e+02
-7.319051362871108779e+01
7.085677042092861200e+01
-1.101422679791282206e+02
-2.386455266347259681e+02
2.704944759990695857e+01
2.481095977176099154e+02
1.333616052565853067e+02
3.095937745940265629e+01
1.277642506403894771e+02
1.276211250593581781e+02
-8.943737865154388089e+01
-1.936588479551850241e+02
-4.291722726021165357e+01
2.811047707199926293e+01
-1.116104089892319990e+02
-1.494817988086829814e+02
-6.878907029667951534e+00
6.357440073410574399e+01
2.038261901591972247e+01
-5.060066257390156252e+00
6.300820214444064149e+00
1.328089111292552005e+01
-2.677716300960901918e+01
-5.508455530388211230e+01
6.953019170969248819e+01
2.220016779888759686e+02
1.772750532613031567e+02
9.182775076376438506e+01
1.179206765237729115e+02
5.144360707969183011e+01
-1.265081489987231151e+02
-2.110437172978968192e+02
-2.687598744830317514e+02
-3.677044528568039254e+02
-3.248049409818716526e+02
-1.142368459680573949e+02
1.201482279899616401e+02
3.285359206655258504e+02
4.387862707872051260e+02
3.750206695662984657e+02
1.937742002837293569e+02
-1.548782949817698906e+01
-1.303710428121065945e+02
-9.116887649047465914e+01
-8.451204100179975853e+01
-1.690525410062949447e+02
-1.264616279274115414e+02
-4.235008297208178618e+01
-1.404644505137600845e+02
-1.640169118053416639e+02
5.308412099859253885e+01
1.277514532815761186e+02
-3.270252937883768851e+01
-4.023862987642007027e+01
1.186039089091685383e+02
1.328945491414378353e+02
5.618667785650067259e+01
1.307481686939844110e+02
2.447086331429427730e+02
1.150088800806113056e+02
-1.435571849747835245e+02
-1.696891770795808725e+02
-7.114119447589871470e+01
-1.950889971093341160e+02
-3.050641135849106149e+02
-7.678416803775387223e+01
1.171470045539963678e+02
2.456730558620129656e+01
5.009078942322324934e+01
2.449105263754752855e+02
1.828388105472747043e+02
-3.687057634641283954e+01
-3.372692801627622572e+01
5.646783975809471912e+01
-7.671750810996745606e+00
-7.724744627205924985e+01
-1.340994407081636908e+01
3.180392133628426876e+01
-6.244793956610511998e+01
-1.421173315035128724e+02
-6.116470205163890483e+01
1.981133270763815091e+01
-2.191334070391208400e+01
5.268047895908842371e+00
1.242314618378788111e+02
9.864417619482524913e+01
1.707861917609137414e+00
2.228471195815060213e+01
1.930728602093715551e+01
-4.669208191774691841e+01
-1.178460184609696704e+01
1.326583003827748541e+01
-5.847464039672887282e+01
-3.312263550494009223e+01
1.851113239639057895e+01
-7.378677097242264438e+01
-6.347675138664555305e+01
1.167649228888422357e+02
1.044596181584372232e+02
-6.685834046347736148e+01
-5.670498902295498311e+01
1.936920147917847146e+01
-5.210164968229639726e+01
-6.260992527190291668e+01
1.237480511813584343e+02
2.412361329346213381e+02
1.078350008709872725e+02
-7.158057119172742944e+01
-1.005993790887177681e+02
-1.210814216954076983e+02
-2.215580276257059609e+02
-1.693571677144288401e+02
4.571547484436924691e+01
1.081826006860804910e+02
4.552735640792176497e+01
9.462696725803688480e+01
1.401304699937479086e+02
8.045154194027077210e+01
6.023001858116634111e+01
4.268012213900937724e+01
-4.056494507729122745e+01
-6.132823568632242228e+01
-5.381742922384670180e+01
-9.325725619418153656e+01
-6.262965228617668600e+01
-4.074999168417993189e+01
-1.349370586062862287e+02
-1.121211447231212617e+02
3.658792165518887884e+01
6.999644370066525312e+01
1.341489274134538334e+02
2.673436100127743202e+02
1.230049104644785700e+02
-1.205632559391091547e+02
-7.154761807162297771e+01
-1.740133966262255782e+01
-9.620188630938463348e+01
5.587669733222203661e+01
2.158113995638972824e+02
-2.201122440510282630e+01
-2.368577186627958895e+02
-1.159778789849564760e+02
-5.268636202553243919e+01
-1.055293544735183389e+02
3.015807078393246954e+01
1.703929403850412712e+02
4.898487277742189860e+01
-8.589791835059753566e+01
3.245420705386992122e+00
1.363119951248235395e+02
1.242630888246888361e+02
5.729373011984281305e+01
2.684945165314054805e+01
-5.098376530128020079e+01
-1.577076343645624377e+02
-1.356441559934561099e+02
-3.267696836907838787e+01
1.416526098056661986e+01
6.249881161992330192e+01
1.029340404656521599e+02
4.027449503448021062e+01
2.073742227457250209e+01
9.970011907112733240e+01
2.410203838787008479e+01
-1.660528547587344121e+02
-1.648301145854690049e+02
-6.347247999288583031e+01
-9.987621787860148004e+01
-1.566261263782051856e+02
-8.655893804531267222e+01
3.814310251930447038e+01
1.552130721209446449e+02
2.885265955652864136e+02
4.577775461601775646e+02
5.382483782679081514e+02
2.816514242174484366e+02
-2.390287207899513078e+02
-5.761827660690740913e+02
-5.558546128410279152e+02
-3.838202879215102712e+02
-1.848299457471351843e+02
-2.661361856945983817e+01
-5.773483047068496354e+00
-4.178563705474288525e+01
-1.758837174014789184e+01
1.164511655462745949e+02
4.818297582269274812e+02
8.631279684361941236e+02
6.524453367925319753e+02
-6.157167763030034990e+01
-4.532252161380292819e+02
-4.049893747656446976e+02
-4.257903626879426611e+02
-3.474112678771865603e+02
1.098553483459031668e+02
3.068856594962822442e+02
-1.484884072877708263e+02
-5.035217413134581648e+02
-2.501221919798205420e+02
1.234026302559135644e+02
2.599789082330531755e+02
3.448365848242798393e+02
4.045444573972082480e+02
2.646378851990172052e+02
-2.758642696588130505e+01
-2.125369571054918083e+02
-1.164205032488190881e+02
6.150062434131260147e+01
-8.947556738646520458e+00
-1.796346014036987242e+02
-1.225724703507222699e+02
-1.408382782947685996e+01
-6.862140081121729906e+01
-7.060313389794364980e+01
2.951856680315976789e+01
3.037886327294273414e+01
8.189970459514604784e+00
6.160868516303258247e+01
6.079522913111996019e+01
9.810342275375164789e+00
-2.236222459366093673e+01
-7.709135649506579568e+01
-6.334912412679398130e+01
9.199090506250929877e+01
2.294679278526028270e+02
2.407032290598412203e+02
9.582826362247374163e+01
-1.824100443387752648e+02
-3.141073636096274981e+02
-1.914585882820679217e+02
-9.668504371618890048e+01
1.231681620014736822e+01
2.877517573554391106e+02
3.001371563926531962e+02
-7.783144666895015007e+01
-2.466473487080388338e+02
-1.298806508757672589e+02
-1.341103558499321764e+02
-1.018637822814123126e+02
1.318628992111979130e+02
2.291353716087125179e+02
1.335545803655741111e+02
7.272176241723930445e+01
2.595270624850243024e+01
-1.208435940683509280e+01
6.269396201797492907e+00
-2.771295048766966218e+01
-7.790137311199914905e+01
-4.305666746143917578e+01
-5.236822980705228758e+01
-1.123735730410888891e+02
-6.814499937377550509e+01
1.156281593285400433e+01
3.996529250944924883e+01
6.715775024605026999e+01
5.681381105188514624e+01
1.469632584126935448e+01
7.991582273224684840e+00
-2.270331551652458657e+01
-3.588918425625887210e+01
5.225995837188882831e+01
5.988766001852646781e+01
-3.746091671465051576e+01
4.019151569684096259e+00
7.028529825901784989e+01
-2.395419908725482472e+01
-2.819236510526475215e+01
9.034303183238213819e+01
1.048678524972497605e+01
-1.594136302671066971e+02
-1.201734314088464544e+02
-7.370376634927389148e+00
9.170586932897489163e+00
3.111093331395688111e+01
8.085782250857688780e+01
4.892683520741303482e+01
-5.472585941937511933e+01
-7.699149808148791863e+01
3.584344891746945194e+01
1.005588679806375723e+02
4.095458093983722847e+01
3.896869297412781208e+01
6.500977413429437490e+01
-4.832918362491656694e+01
-1.137656675081481268e+02
-2.355019878999129013e+00
1.956589262797747608e+01
-9.147847320461364973e+01
-8.955484551816792305e+01
2.311443291262312627e+01
9.606428706289652553e+01
5.803148603767410663e+01
-6.709896035306877593e+01
-6.727871171767489500e+01
8.638196834242057776e+01
7.788938953402607979e+01
-1.455699580954289551e+01
1.521404484391526069e+02
2.401612079089518375e+02
-1.391761143060482766e+02
-4.398941089851164747e+02
-2.017025492641994049e+02
7.422126080124502323e+01
1.788188294209090401e+01
-1.469821501430708288e+01
1.217948951868216483e+02
1.398232353405597905e+02
4.753448830529160318e+01
5.694770761188406993e+01
9.642316774802543478e+01
7.366370466963591923e+01
3.326290094403923803e+01
-7.271586786559312543e+01
-1.326809966502792975e+02
6.319298527139236654e+01
1.934406860722288286e+02
-9.646381158512350851e+01
-4.113704293952209810e+02
-3.594012955246566321e+02
-1.095814537825311561e+02
1.327370049929110394e+02
1.773353547700370143e+02
-1.520025790972714841e+00
2.291384338598485471e+01
2.137779908046101696e+02
8.342587888151518882e+01
5.564855293217317467e+01
5.157097331023728657e+02
5.265987204988514350e+02
-2.444176145127702569e+02
-6.642150467628725892e+02
-2.728958235694176437e+02
2.199714516869174190e+02
2.296671528088363061e+02
-2.115337924561011391e+02
-4.635716833450312606e+02
-1.826876363163221697e+02
-3.875283449952600989e+01
-2.109079833452828154e+02
3.224627974427578181e+01
4.282436623472739825e+02
1.126007255372356894e+02
-4.897746059837221537e+02
-3.030579447517038147e+02
7.505623002740896936e+02
1.383204528276893598e+03
4.789192921462732215e+02
-8.000243418828980566e+02
-7.372325585459891499e+02
-8.912127840230286324e+01
8.902017679002288730e+01
5.200140911900149376e+02
1.050074775842732606e+03
4.945333808753462677e+02
-9.045650140471592522e+02
-2.126381754713576811e+03
-2.206371170375608017e+03
-7.521011296497075591e+02
5.978562654348754677e+02
7.081386035705783115e+02
1.143411746158541746e+03
2.174895911496809731e+03
2.068006891007630657e+03
7.866866618715367849e+02
-8.673094485786610903e+02
-1.962782450956604862e+03
-1.022424055757567203e+03
3.139465956320543114e+02
-3.037083087814984879e+02
-2.266934468319795997e+02
1.322200877357455511e+03
-1.153401089935754555e+02
-3.073466159330958817e+03
-1.299928798360570909e+03
3.422819574286883835e+03
4.398159907208125333e+03
6.118115414351400432e+02
-3.409980013270921518e+03
-4.078021724105260546e+03
-3.682653904711747145e+03
-4.234473847917522107e+03
6.121568682805772710e+00
8.900187521804124117e+03
1.023370802241752062e+04
3.116195013343701248e+03
-6.793100344837666853e+02
-1.543297390594672606e+03
-5.166309682120006073e+03
-7.272082685845176456e+03
-5.793087211602490243e+03
-1.971215029431207086e+03
4.555349278567260626e+03
5.888531905356366224e+03
4.159457631466596581e+02
1.840830975902825230e+03
4.734804971912765723e+03
-5.561253090870649430e+03
-9.818577412417022060e+03
4.468751003047603263e+03
8.612418630773347104e+03
-2.376519700656939222e+03
-1.178420214635771345e+03
4.235239713065491742e+03
-4.172405838399827189e+03
-6.656361471277047713e+03
4.256879932157778967e+03
6.397023924957773488e+03
-4.242574167400834426e+02
-2.794139376602059656e+03
-3.469073984721768284e+03
-2.611543367203846628e+03
2.167341916307192605e+03
3.780057004118521945e+03
2.644170915956004137e+03
9.979197081058522372e+02
-6.950224728455928016e+03
-1.099697992865936612e+04
5.426596984689011833e+02
9.284259363885314087e+03
4.657218552452440235e+03
3.936256874318053178e+03
5.122008360814026673e+03
-5.309577843393533840e+03
-1.025190157713245389e+04
2.097336713470284849e+03
9.237681846563713407e+03
2.190561886209021850e+03
-2.461282483806582604e+03
-3.003588672631797635e+03
-7.448291374957983862e+03
-8.600857186245384582e+03
-7.907486795461960583e+02
6.502144231603094340e+03
6.246009781195910364e+03
2.559453295825816440e+03
4.835513048770388878e+02
2.312433458448200838e+02
3.250034201592717977e+02
4.710066957358569653e+02
5.507627041842474682e+02
-2.504930128559661000e+02
-1.526278639704185935e+03
-1.736568228401604074e+03
-7.792274439701100164e+02
2.048369510538254303e+02
3.547641526075773299e+02
-6.211576495940364566e+02
-1.685640427286012027e+03
-1.077188628126802541e+03
8.671852123562082397e+02
1.773812335260240161e+03
7.345378072976021713e+02
-6.670037547104610667e+02
-1.090745034491347951e+03
-7.095013342481408927e+02
4.596517043526147859e+02
2.303462949784018747e+03
2.991784380681152925e+03
1.348669504459317068e+03
-8.686529446173708493e+02
-1.893444999280879301e+03
-1.734714654768051560e+03
-6.813605899856142969e+02
2.871837151527150240e+02
-2.997764135997210744e+01
-7.413711724790471180e+02
-7.055682133706518471e+02
-5.228370743919759889e+02
-1.834885589674088919e+02
7.027046457857360338e+02
9.650721937908652990e+02
2.809203483624405067e+02
-1.376591315685846872e+01
2.828717937268817195e+02
6.567932659263499318e+02
1.018445237158743339e+03
7.040183297242858771e+02
-3.029006949163187983e+02
-7.628071657546790902e+02
-6.570212811091192862e+02
-6.652072301377975236e+02
-3.088996440431888573e+02
2.802935029959628537e+02
8.515822011119995238e+01
-5.153900587659931034e+02
-5.597745377897396111e+02
-1.891214242857593035e+02
1.541686787799876583e+02
3.323971735810785049e+02
4.022955418705232091e+02
5.079624288142952082e+02
3.979261554290813478e+02
1.678309994245131875e+01
-1.216772219702667179e+01
1.933342487606703060e+02
-5.749534187487951442e+01
-3.155660354072499558e+02
-6.258802574682377440e+01
7.257677535774688238e+01
-1.220700085503437862e+02
-1.336305592500100659e+02
-4.632671553212650650e+01
-1.297412902974621147e+02
-1.785340134788106070e+02
-7.516621496550729375e+01
4.229898961294760795e+01
3.347249542953641566e+01
-8.767696612925240629e+01
-8.427945677912863687e+01
6.279460724622757795e+01
1.190053052422581317e+02
1.690559953191059037e+02
2.853623150990953263e+02
2.261161751910822488e+02
8.600595319227005575e+01
8.576516794898937235e+01
3.694980756901213681e+01
-7.362664767060937265e+01
-8.510728907381680131e+01
-1.952653813913314877e+02
-3.950224141960783868e+02
-3.678286165389163216e+02
-2.172977995584761004e+02
-1.029397236442283372e+02
1.124506052540774732e+02
3.120665160399742035e+02
3.287496884469877045e+02
2.930440886213584690e+02
1.950694027906681640e+02
1.114346756254917814e+01
-5.978794111228226882e+01
-6.985840948561116193e+01
-1.431867694052850197e+02
-9.763212724569564216e+01
3.492259329062063955e+01
1.969824089512970389e+01
-5.433856486675637854e+01
-8.393993795712216865e+01
-1.241747943473313711e+02
-1.020593067846313744e+02
-4.349128512912726308e+01
-3.001302607273479950e+01
9.230109753182270538e+01
2.202834096244586135e+02
5.983224446867106394e+01
-8.077799477266009376e+01
9.297957769188258226e+01
1.457181279827338756e+02
-3.040053381993494241e+01
3.862732241799444211e+01
1.797533997625314441e+02
-5.709813713626540022e+01
-2.823581269180938875e+02
-1.270210737711349935e+02
-1.539186064368179885e+01
-1.127221079690829555e+02
-5.699074861314637985e+01
6.978254627802078858e+01
-1.666915725004318105e+01
-8.535426091909084789e+01
6.273837289883865509e+01
2.061529215038031850e+02
2.241723422128807783e+02
1.638297927589044320e+02
1.127335328979735429e+01
-1.458223863325505931e+02
-1.972111869579395318e+02
-1.612694850979767125e+02
-4.293084597431692018e+00
1.876113216424091945e+02
1.371771031585994933e+02
-6.288458869537778639e+01
-1.181771282783682011e+02
-1.425316799229065907e+02
-1.669854645629017114e+02
4.281789432859686428e+01
2.290046930705486830e+02
8.777066310916404746e+01
-3.580825440298730200e+01
-2.319298844583293473e+01
-1.348857518348868041e+02
-1.144529240092551845e+02
1.808585980199794108e+02
2.508691899776883076e+02
9.071362615921796646e+01
9.533370315200710365e+01
2.437702883518590369e+01
-2.435422266053809608e+02
-2.496465433470634423e+02
-5.870627951469949579e+01
-6.233664529760456929e+01
-5.757622003232319230e+01
1.068935314752109775e+02
1.384383538809638594e+02
3.615035735974720410e+01
-2.496627824220670533e+00
-2.939402601871624654e+01
-3.612370034970839328e+01
4.021144816618475915e+01
6.512280638037020708e+01
2.563000484856955552e+01
4.141567042473354121e+01
6.614876528721363336e+00
-1.164524626270330003e+02
-7.192104658656505478e+01
1.406076815079213418e+02
1.738632037426809802e+02
-4.051643295558806201e+00
-1.047390049024180740e+02
-1.302729063634458271e+02
-2.333316539418619300e+02
-2.269878500650165734e+02
3.561479315439591886e+01
2.523863733957604438e+02
2.142124751367846898e+02
1.039001093164745129e+02
2.691550050692864815e+01
-4.585246847555914229e+01
-5.290458776239454153e+01
-2.645788075506859727e+01
-3.331516176595692258e+01
1.853057418838242754e+01
6.619726457107731221e+01
-4.588166951277955974e+01
-1.098344829358871948e+02
2.874565221886529187e+01
6.269221065880011423e+01
-9.298052577659302642e+01
-9.175626829385144845e+01
7.627667387110318487e+01
8.006695289694994244e+01
-5.409497704323308653e+01
-4.234272723826646256e+01
6.777663850620506025e+01
2.508239313577699647e+01
-7.455230192813850465e+01
2.753276480395070891e+01
1.556776126601463375e+02
2.940842566897567067e+01
-1.191235889406532635e+02
-5.739223846879808377e+01
-9.288787734077907032e+00
-3.524693352508910493e+01
5.381862353668992682e+01
1.247338831867287894e+02
2.734139640467555665e+01
-5.137718067978874359e+01
-5.011302618497876438e+01
-6.448865649078200590e+01
-3.103584604364986177e+01
3.096184373967493997e+01
-4.710520622957852233e+00
-7.037661430810534569e+01
-7.870922535142528886e+01
-4.614135726935200665e+01
4.461754164665293132e+01
1.195916568289518835e+02
9.680248477251745953e+01
9.021972089815326967e+01
1.019290707297689096e+02
1.207271169804706368e+01
-4.484972401891886307e+01
1.570000480862126402e+01
-6.223466362937790652e-01
-9.423867559058966492e+01
-1.196406678037529048e+02
-1.252195993646265322e+02
-1.035390348773056672e+02
-2.049170364358824870e+01
-2.084815305568138655e+01
-4.907105129787913711e+01
5.521170787977871441e+01
9.724987184961442210e+01
1.467750211541602035e+01
9.608121702790560903e+01
2.524392365125088986e+02
1.928954690334995234e+02
8.716660498612833408e+01
9.536691010221500164e+01
2.792656125499168596e+01
-1.517614070282799332e+02
-3.137422381525626633e+02
-4.140996398464710637e+02
-3.815706132813961062e+02
-2.172111449781513102e+02
-2.278155547950302307e+01
2.380053772737954318e+02
4.982262297248486220e+02
4.810636839104938076e+02
2.347603229279483799e+02
5.008558925827917818e+01
-7.762614406004065870e+01
-1.974653693305832007e+02
-1.676211614236866296e+02
-4.943243109255428891e+01
-5.643901762099573460e+01
-1.532680124119758602e+02
-1.851245370661310119e+02
-1.329623053962526740e+02
-3.519862796615201717e+01
1.123596311483813253e+02
2.720516406478810723e+02
2.758699279908705080e+02
6.615217001875150515e+01
-9.489909730794155962e+01
-7.477956029761026002e+01
-8.776888192003781342e+01
-1.023868340615893402e+02
6.621489708119621298e+01
1.321195226511060525e+02
-7.763238944992659185e+01
-1.462269732025392273e+02
6.524494711936422497e+00
2.203292954229130984e+01
6.639295244287941600e+00
1.323900084473097820e+02
9.172761901686395447e+01
-1.170340081476542196e+02
-1.216412523840024420e+02
9.184983354136873057e-01
2.526925948436622349e+01
6.689571100732432285e+01
1.194640414064077447e+02
2.079997812980148097e+01
-1.184476203462218109e+02
-1.383980588712181543e+02
-7.831797694774425622e+01
8.582520579335577438e+00
7.800765937244540282e+01
7.766350356791981824e+01
4.213659648233382882e+01
1.421748861154593691e+01
5.326734719327098411e+00
3.900834936053917801e+01
7.277155007518102536e+01
4.687397487629331749e+01
-2.216687755522729475e+01
-1.260612896038372099e+02
-2.091469416389233515e+02
-1.459154066573625812e+02
1.320139614626572255e+00
7.300195149920040194e+01
1.177554900501622654e+02
1.718153473882053675e+02
1.131924085439210188e+02
-1.550954411379072262e+01
-5.754214174899529155e+01
-3.748969846565135811e+01
-3.100212624053746424e+01
-3.155719754260412202e+01
-3.660785235427072593e+01
-3.346582444718938376e+01
-1.304851262573453141e+01
3.688502291022139890e+00
3.386865143216520835e+01
5.798533460113454652e+01
1.445789725236734213e+01
-3.789122877440878057e+01
-4.997481945082188304e+01
-7.119740781067746127e+01
-2.799900188631228204e+01
1.066007089935898335e+02
1.284032740670354258e+02
2.863839803358936109e+01
-3.802887510516486991e+00
-3.082147547444104774e+01
-9.970048917094008800e+01
-4.580466687734905662e+01
6.138496016257516175e+01
6.278560166515117658e+01
4.412485789456042085e+01
-2.247340485095047313e+01
-1.847299548051483384e+02
-1.721284828602568382e+02
2.464813090811400187e+01
6.646933551633627246e+01
4.957762202140028762e+01
1.845525680307836183e+02
1.802040267902743267e+02
-5.130547402319855621e+01
-1.269693737643898430e+02
-1.569829950214983505e+01
6.195303322172880378e+00
-3.307741275253516733e+01
-8.206265813537953591e+00
2.090881241474702534e+01
-5.266677395699368880e+00
-6.223148384996917315e+01
-7.429208029253020129e+01
1.365498353758979599e-01
5.409786761604219407e+01
1.355085516777389287e+01
-2.255328247599342006e+01
-9.936042324380263580e+00
-7.524969493943705068e-01
1.736040928459253507e+01
5.053112297103129436e+01
6.730471497509414291e+01
6.744040724404817411e+01
1.546217120485444063e+01
-9.033958290850466710e+01
-1.263034016140926070e+02
-5.001372281816739473e+01
4.522381671692686211e+01
1.146473239303558529e+02
1.292787268237917715e+02
5.319786549921648344e+01
-5.155176954705352443e+01
-1.346119901967392991e+02
-1.943057400355997686e+02
-1.478561026125889839e+02
8.439218249778237535e-01
7.786589825964924216e+01
5.651460155033240085e+01
6.286556945533673257e+01
9.521773199822247591e+01
9.406113164969607965e+01
6.778383836136153207e+01
3.231515096783004992e+01
1.913201278788620385e+01
6.952657602723769870e+00
-8.821848683650793532e+01
-1.537733404128927077e+02
-3.270712777386906112e+01
6.675685892130792354e+01
-2.891039585419346025e+01
-5.371601233541277054e+01
6.985055610162491746e+01
2.398821220641334051e+01
-1.338682296916963139e+02
-7.577337171386305670e+01
2.477192827562168276e+01
-8.110109301110844626e+01
-1.070498074248360325e+02
9.033103265754284905e+01
1.752460403543695406e+02
1.113905485039110204e+02
1.741605898918522257e+02
2.501153077759382199e+02
1.241218743571031382e+02
-2.429907752853561576e+01
-7.120814483480229740e+01
-1.732059508171967934e+02
-3.277998043725407342e+02
-3.716156351590224745e+02
-2.773527031280717665e+02
-1.086813302909811370e+02
6.065178946876932287e+01
1.882439459552583685e+02
3.029959922482054253e+02
3.435501384180324749e+02
2.263170759494277320e+02
1.056682691658411102e+02
8.198492198333805447e+01
-1.122092343203646081e+01
-1.583932271872407114e+02
-1.892533363219514229e+02
-1.936823659259401325e+02
-2.097153253070012511e+02
-8.648373403593977571e+01
4.718967082342545183e+01
3.148025199148975162e+01
4.905899801294279428e+01
1.101886371085007426e+02
2.915707782067693188e+01
-3.565889535531199783e+01
4.526311902106185414e+01
5.180835035768705410e+01
-2.513077050420611869e+01
-7.297146805736164588e+00
2.848078295262380166e+01
2.603562009595755100e+01
5.802449022713653193e+01
4.394769162659116546e+01
-2.335948945061672077e+01
-1.905269207978199830e+01
-3.040598987592344571e+01
-1.028769887293703107e+02
-6.004774160443691500e+01
2.290036319074116022e+01
-4.265389272805391130e+01
-8.590079846878502678e+01
1.928297902244269935e+01
8.167641397841704531e+01
6.254935938653534322e+01
7.954696524547489389e+01
6.163295863420178478e+01
-5.488182821153311863e+01
-1.330901600790703867e+02
-6.132623550486538022e+01
8.735183672287041645e+01
1.439456186924409451e+02
7.502990471116247306e+01
1.313866075764415520e+01
-5.395832566581569267e+01
-2.018460205614001950e+02
-2.114855388852835176e+02
2.835064716301969057e+01
1.740779705325414568e+02
9.915076823513189197e+01
7.630916478639763056e+01
8.256054509134588670e+01
-4.689028791416182429e+01
-1.261111277593534084e+02
-7.121839446179947686e+01
-5.812783455904298080e+01
-4.274311342903609301e+01
3.273429567025898024e+01
2.786200973908254852e+01
2.925754251817054552e+01
1.382684564748786045e+02
9.560962723852911438e+01
-1.021283222701805471e+02
-9.330191185606196314e+01
4.228410874878757397e+01
9.265765145177150330e+00
-2.431557418456547381e+01
7.823286771198115730e+01
7.643651481753639132e+01
-6.722154313236448786e+01
-1.394479689303795453e+02
-9.691439729570477368e+01
-1.210362672602369649e+01
3.389188605924816500e+01
3.671805889800888067e+00
2.929037499771191833e+01
1.114028819950828222e+02
3.079282947794939673e+01
-7.813332670568983929e+01
5.868530466830556236e+01
1.470611494754924138e+02
-4.422044338807282315e+01
-1.007981129814166934e+02
7.431507522465921056e+01
3.181280689457971178e+01
-1.548110762603560318e+02
-7.801038088177401164e+01
6.348465634829276638e+01
-5.731083455040351993e+01
-1.878848647786592210e+02
-5.119216449985891160e+01
1.307537870074552870e+02
1.251600123528036477e+02
1.075462945526938654e+02
1.935265186911395574e+02
1.259632199332764486e+02
-1.092117985547942851e+02
-1.613856755863641297e+02
-7.882240006308136060e+01
-6.918590131675560428e+01
7.544826100219516718e+01
2.281987063821116521e+02
-2.647040479157430681e+01
-2.658387731467519188e+02
-8.561319355465080605e+01
-6.843225052306142686e+01
-2.967869294067013470e+02
-1.174713725806184499e+02
2.265375734147717139e+02
1.865076548292142320e+02
9.813282972088586575e+01
2.194279364293285255e+02
3.063620465113000364e+02
2.577567244245637994e+02
6.725483497626021823e+00
-2.852303686778406586e+02
-1.751398626049164875e+02
8.104619105074591801e+01
-5.316076213904151615e+01
-2.424808654916657247e+02
-1.468361733746517359e+02
-1.218116950998092847e+02
-2.826748012951754845e+02
-3.166206967105001695e+02
-6.457009550372096385e+01
2.765808766695218992e+02
2.661138762322967750e+02
-1.217940072598708134e+01
9.388893181872762739e+01
4.779737954219482958e+02
5.187082872554644837e+02
3.183006035834480940e+02
1.013517416517867673e+02
-1.455614736848177699e+02
-1.577983338701779417e+02
-7.554850230395581434e+01
-2.407513258914339929e+02
-2.444481601824218444e+02
-1.537364121976249010e+02
-6.216800210495177907e+02
-1.008928405960666396e+03
-5.203581884252770351e+02
2.132057935578743866e+02
7.006807499731464759e+02
8.691796414042642027e+02
3.422167541670652327e+02
-3.231648015786829546e+02
-2.664323003950250381e+02
-1.454966860749892099e+01
9.108920498109988273e+01
7.625645549523225100e+02
1.909442560530455694e+03
2.293653540794925902e+03
1.030219084334150693e+03
-8.950911508170609068e+02
-1.645038114782081720e+03
-2.170318211874052395e+03
-4.114231104010789750e+03
-4.526215417559214984e+03
-1.246129176852748515e+03
1.455133505811221312e+03
1.416364649257978726e+03
2.312851644225213931e+03
4.425398485884888942e+03
4.479900257331326429e+03
2.833781611214878012e+03
1.336607845811829293e+03
5.485883626691596504e+01
-1.265269716758996537e+03
-3.291775560667519130e+03
-5.422399206352662986e+03
-4.901520670750864156e+03
-2.118694295570911891e+03
-6.117515440865158780e+02
-5.493754519869792148e+02
8.351309123522801201e+02
4.063904174845150465e+03
5.848681277692842741e+03
3.326557127375082473e+03
2.781037177946221277e+02
8.119214265467745690e+02
-2.069122471320586101e+02
-4.549939892784026597e+03
-3.266634491285718923e+03
2.622971012174262341e+03
2.273626369399601572e+03
-1.681533093146140800e+03
-2.362012542579548153e+03
-3.162805881282814880e+03
-2.791585638293235206e+03
1.749597348818528189e+03
2.921107577739949193e+03
1.336699774883425107e+03
4.127990708016381177e+03
2.509224494630901063e+03
-5.403412429206261550e+03
-2.828601847375261059e+03
5.567854063059236978e+03
1.465427278042701573e+03
-4.980965808154045590e+03
-1.662869704431532455e+03
-7.855268620741326231e+02
-3.554740264362224934e+03
1.062131323886015025e+03
6.116017611427102565e+03
4.554048429646139994e+03
2.571781739727179229e+03
-7.680540083809282805e+02
-5.464683952717349712e+03
-2.825491654066619049e+03
1.491010113191207665e+03
-2.199803153108620791e+03
-4.272811603868030033e+03
-4.603794381240088285e+01
-9.813194496671954425e+00
-1.361723226737854247e+03
4.381547201058556311e+03
7.981980331721969378e+03
2.712397124539525066e+03
-1.880656130857148582e+03
-1.802271593603399879e+03
-1.984599676577973923e+03
-1.210420237819000249e+03
2.440467944782542872e+03
3.471916701530672981e+03
-1.065388874276792876e+03
-5.932529629938579092e+03
-6.410555641149941039e+03
-3.630724663046580190e+03
-4.896939574432195741e+02
1.829396843455547923e+03
3.665963354396395971e+03
5.387314017009851341e+03
4.764175319983193731e+03
7.391373161307380997e+02
1.016960694668487832e+02
4.942813291752265286e+03
1.998696001143519652e+03
-9.577726909533919752e+03
-8.297349146388038207e+03
3.740937390269352363e+03
9.099231931406797003e+02
-6.781051882857189412e+03
4.246996764120548505e+03
1.018431067522306876e+04
-7.743706621043906125e+03
-1.353940625396390715e+04
4.871935668779594380e+03
9.286268117659976269e+03
-1.003983373970859816e+03
4.463487345099534650e+03
1.075326244989816769e+04
-3.231634261097826311e+03
-1.250865386584755288e+04
-3.714403410641484697e+03
1.876839622267160166e+03
1.500091179372545639e+03
5.578148202376667541e+03
5.431658717831402100e+03
-2.155903262171929327e+03
-5.754538850012853800e+03
-5.560902489243317177e+03
-5.468800575692102939e+03
-7.017308831453806306e+02
5.183432165537414221e+03
4.574889461740141996e+03
2.128512762134636887e+03
1.881126279305991602e+03
3.637267346222322999e+02
-1.018028218665969803e+03
9.769095184468552873e+01
4.786139278519943900e+02
-3.428140877811301834e+02
-5.513843665949602837e+02
-1.279692919827780315e+03
-1.740246452549929018e+03
-3.478661216582013935e+02
5.800723816624941946e+02
8.240795979097518398e+01
-2.732846586352739564e+02
-8.121546953331971963e+02
-1.166294259629784619e+03
-1.591239553071107196e+02
7.032486338147499509e+02
1.027404091245792415e+03
1.986176891466017196e+03
1.675659594483344108e+03
-4.253082334378702285e+02
-9.967424796408477050e+02
-1.729040123386073446e+02
-2.670912281064130411e+02
8.789173615114209781e+01
1.209257216402468202e+03
6.611718799352150882e+02
-7.937955797461540897e+02
-1.223815305004099628e+03
-1.520257612870973844e+03
-1.687254510901479534e+03
-5.279938134666801943e+02
7.838968035752558308e+02
9.463767159948001790e+02
7.677239544484488079e+02
7.417388155643180880e+02
5.012828248071367057e+02
1.775914901883335801e+02
7.687400405545973570e+01
1.951584498683249933e+02
2.250434263456445763e+02
-1.198278320505245063e+02
-4.244895749611800397e+02
-2.578227164030680001e+02
-5.259056035160976705e+01
-1.074311755435214621e+02
-1.440475140067921700e+02
-1.425190365046999830e+02
-1.827834005639780059e+02
-1.718845245850208414e+02
-2.029848071214659910e+02
-2.549814958357419812e+02
-1.352608531676641803e+02
1.268615980499818008e+01
9.448926188789474168e+01
3.410552774583614450e+02
6.709284911965131641e+02
7.046492861346779364e+02
3.672661110898362153e+02
-5.807881679417006637e+01
-2.759871844401409930e+02
-3.140591962068240832e+02
-3.329679610221692769e+02
-2.174175382806376717e+02
-7.989357283617812833e+00
-7.333031066047171009e+01
-2.729908906103489699e+02
-1.778196240870151144e+02
2.583436590597527882e+01
9.411339562823879135e+01
1.903279950110284062e+02
2.378187076306883796e+02
8.881998731384813084e+01
-4.844687338474479787e+01
-9.190003800412095813e+01
-1.006455533427321285e+02
-2.288966483653224415e+00
8.799589324922490619e+01
7.185205271339913224e+01
1.454762612362426637e+02
2.253798042315649752e+02
7.771362857236877630e+01
-6.657070747976707992e+01
-6.727882484596455015e+01
-1.625569035872133270e+02
-2.653137925611036394e+02
-1.586113974430230087e+02
-3.690509749823314678e+01
-2.121804133621222022e+01
2.877865179754718028e+01
7.732791431104139690e+01
5.366312619123472416e+01
5.520585961969478461e+01
8.278965397404648741e+01
5.727128648598586835e+01
1.721825828306810990e+01
2.107122595177301605e+01
4.896326824148734858e+01
4.346717924508050857e+01
-9.229217022930590986e+00
-3.710934973446424578e+01
-1.881915742380448364e+01
-3.902015953633657830e+01
-8.300735527674619618e+01
-5.636588029585105630e+01
-4.837840942754079165e+00
-3.095920616878575338e+00
-1.508169581351947386e+01
-1.902706900625092734e+00
4.038233975401873721e+01
6.536909747184139974e+01
-1.058598939492100044e+01
-9.530409211851579698e+01
-9.930948985417131780e+00
1.138200699046304152e+02
5.826138499717315256e+01
-1.657685955621419538e+01
4.641129119836981687e+01
2.203826234118052696e+01
-1.520487378396240103e+02
-1.445393530498837436e+02
9.447123063227057571e+01
1.916314522777145726e+02
4.719824755751177037e+01
-4.696647675740032213e+01
-1.950079335694523408e+01
-7.827666743419126760e+01
-1.685832322473636111e+02
-4.802512417265865707e+01
1.475120834061796131e+02
1.110546705240850542e+02
-3.783377069571378826e+01
-4.108637340975720775e+01
1.983620501107583589e+00
-2.827152998928285399e+01
-1.615296286145029825e+01
3.867617993338241433e+01
2.288815217991719919e+01
-8.802266811188152573e+00
8.411513727467948343e+00
2.739004349699140661e+01
5.527828967887693068e+01
7.794070610144497380e+01
5.094140691713699987e-01
-1.197991639849140313e+02
-1.393244802531219193e+02
-8.752123900554914826e+01
-2.796783975798255284e+01
7.382716374652525815e+01
1.677759839457795863e+02
1.420262786807884368e+02
2.365667638503276038e+01
-8.474429034241777003e+01
-1.407071481079874218e+02
-1.403297114484807651e+02
-8.407109424794111874e+01
2.624775653440534384e+01
1.463959624684089817e+02
1.698985370074348111e+02
8.685055755126275301e+01
2.035880028729038216e+01
-2.206466126240166759e+01
-1.078780063092521004e+02
-1.221314335829231652e+02
-3.875570362535653235e+00
3.926723369648104978e+01
-4.527452636978978973e+01
-5.093834200432005588e+01
8.055224996940571813e+00
-1.381706846600817329e+01
-6.384621251058431923e+00
9.638660376065637081e+01
1.143229364762452889e+02
3.136624392887350865e+01
-7.719787437767644533e+00
-3.489602158037806134e+01
-7.007503264119678477e+01
-1.564507402034750783e+01
3.157977149235935244e+01
-4.533059819929966494e+01
-7.618866271936799706e+01
1.056830159635978372e+00
-1.970337168450839282e+00
-2.262009585613570195e+01
1.016999092666305273e+02
1.429956374686560423e+02
-4.202207711164616910e+01
-1.326833518941733416e+02
-2.886371203316818068e+01
-1.992282918619983745e+00
-3.237512180697946995e+00
1.412885737408500972e+02
1.851828323852369920e+02
-4.175101516205136143e+00
-1.201290402636487329e+02
-9.054715513356191536e+01
-1.189849979292093565e+02
-1.260244978203152471e+02
-1.430166287524114033e+01
2.663803842565305757e+01
-3.414059269497507643e+01
-1.926855674812638242e+01
6.012091825030370984e+01
1.199790134340334475e+02
1.720397564718007857e+02
1.758092236820562277e+02
1.144468531523426691e+02
5.478385297000006204e+01
-1.828731681972346479e+01
-1.106742182177801510e+02
-1.602498285519302783e+02
-2.224527011438934494e+02
-3.175095040538923286e+02
-2.981177021102872686e+02
-1.545127730444481244e+02
2.719997661093984220e+01
2.873154560120336782e+02
5.047858527603884795e+02
4.529954580925368077e+02
2.609924447217015882e+02
9.654971951744695957e+01
-1.507661617515799151e+02
-3.664266890302756110e+02
-2.972752320467694744e+02
-1.323233065208077903e+02
-9.121629776041996251e+01
-2.814428942958878821e+01
5.298033222721512914e+01
-3.229973202303518143e+00
-6.644927398300407617e+01
-2.838786898652123725e+01
6.949005315077042333e+00
7.655825927682688814e+01
2.029438873201299600e+02
1.985361229955433089e+02
7.722834039910891590e+01
3.077342322007709541e+01
-1.144271297803013177e+00
-1.026799241427242464e+02
-1.124700430154103969e+02
-3.667283959218061273e+00
9.214381671078610836e+00
-9.550615623969525814e+01
-1.207546216544574662e+02
-5.260522162215833930e+01
-4.160009689349853801e+01
-5.327148285760172541e+01
2.680111388059572519e+01
8.638124352908228332e+01
3.891802001916958176e+01
4.884773548115206410e+01
1.367246071025498395e+02
1.259997506846453348e+02
6.154949829984150256e+01
2.760275384912636909e+01
-8.418697843090211563e+01
-1.786985871794404659e+02
-7.235031861491799532e+01
3.935683899280225972e+01
9.475311386637793376e+00
1.405664280742818839e+01
3.295246014526366007e+00
-1.523613547134397095e+02
-1.937927278393672168e+02
-8.827951564854334521e+00
1.145204094934261292e+02
1.158609582520101355e+02
1.378588057473710933e+02
1.160530383310531590e+02
2.611786836199633655e+01
-1.023534577507440524e+01
4.241248833101706417e+00
1.330633626179793438e+01
-7.082499592049505743e+00
-9.779974163933997033e+01
-1.697346041596340456e+02
-1.053682202819286999e+02
-1.178404223030920051e+01
8.090449497741177609e+00
2.773310928555478228e+01
5.808138663763637766e+01
4.086294415069730235e+01
8.522297039265749774e+00
2.380023294768833253e+01
9.448761696754407069e+01
1.225888467381054880e+02
1.404401233154139561e+01
-8.780446828167872297e+01
-5.255144127046391134e+01
-3.851535432498138789e+01
-7.348065098715787258e+01
-2.951143617345179937e-01
4.230380764977311259e+01
-5.883168489052113159e+01
-7.186262148189597099e+01
-9.208833840998874365e+00
-5.256950327572515391e+01
-4.582911370428423226e+00
1.730740386176450443e+02
1.518477594567717404e+02
2.314090850189425552e+01
4.837411261885826974e+01
1.779293179518390389e+01
-1.452262589696752286e+02
-1.583198923566115752e+02
-4.596830447406751574e+01
1.472407025916192502e+01
6.599998990767183216e+01
6.947644168348207927e+01
-1.406133125187317567e+01
-4.034174742665007329e+01
-3.660852639883346171e+01
-8.740429281117339144e+01
-2.801306914760545652e+01
1.355195693702565904e+02
1.460215791579572340e+02
1.917751177746448832e+01
-4.430479559324321315e+01
-2.156307665915993255e+01
1.410687382275690815e+01
2.643621852849908027e+00
-2.952093714457458162e+01
1.122805851076357797e+01
1.649568020259910028e+01
-1.349456696951957895e+02
-2.015149104077926268e+02
-4.437139600563747877e+01
7.051631921187193086e+01
6.795881733916647249e+01
1.203481034849636160e+02
1.667991633234346978e+02
1.075640754015126390e+02
1.715767123883700762e+01
-8.069006199129854906e+01
-1.346374025004340922e+02
-6.083695750933426183e+01
4.472120201790748872e+00
-2.206367351845063496e+01
1.226830188133991761e+01
6.719924042177389367e+01
-1.749899944351971470e+01
-1.169393476049205418e+02
-9.803804996635247448e+01
-3.193217265536340932e+01
5.525023459301871043e+01
1.130299516963277995e+02
4.690135447035158478e+01
-6.014424672759290047e+00
5.633799484261813006e+01
3.802664751606092608e+01
-5.830560733472025703e+01
1.948191780873725776e+01
1.513871398774029444e+02
5.060702808684231968e+01
-1.060410054991007911e+02
-5.188299485486914620e+01
2.805088975869687573e+01
-7.182026242182264753e+01
-1.735388586809142737e+02
-1.350178350510607288e+02
-1.092240762835002101e+02
-1.444582740333037520e+02
-5.545751756206438188e+01
1.653734123406763388e+02
2.962439839401465065e+02
2.797150979852024761e+02
2.317727084727960971e+02
1.613109314556628249e+02
4.921601471250601634e+01
-1.973406032379721609e+01
-6.460265975917458547e+01
-2.151237806719041998e+02
-3.946599047722588693e+02
-4.155824025824953196e+02
-3.226716151431019171e+02
-1.887513337280596772e+02
1.012046585403556236e+02
4.412116103552498885e+02
4.868965145811891944e+02
2.932583696955065307e+02
1.734872852617096726e+02
6.609711147224102490e+01
-1.213317690130648003e+02
-1.533065205500069794e+02
-5.726799090364256273e+01
-1.202360672276235505e+02
-2.073189233535663618e+02
-9.345894041346926429e+01
1.009714482827642001e+01
-1.354734526772471170e+01
2.104600416931626583e+01
6.320377317354837032e+01
-4.779498702348507777e+01
-1.456068570102447381e+02
-3.005748918105851786e+01
1.680415695386246000e+02
1.971714633498157809e+02
6.649788072083391910e+01
1.893400159101416591e+01
6.075045327347380919e+01
-2.601759919721315129e+01
-9.033762522873564649e+01
9.677839999108188351e+01
1.640173044051020099e+02
-1.382715970348711210e+02
-3.217411366480382071e+02
-1.673053663524610499e+02
-5.118788943956295867e+01
-3.299377167213746187e+00
1.535949836779820430e+02
2.037691975727359761e+02
4.991877060502768160e+01
-7.850786430603893962e+01
-1.063440943963134231e+02
-2.013215000205784122e+01
1.640988026397495787e+02
1.691790053409334007e+02
-2.579244343859500077e+01
-6.113956675459269974e+01
-1.386793206958684976e+01
-1.482170668968445852e+02
-1.657384261341146328e+02
7.262427889773609024e+01
1.264029262509694860e+02
-1.617990751296193253e+01
3.838564792618541333e+01
1.392269726062308735e+02
1.757154666108727881e+01
-1.032131953751079863e+02
-1.172303638706777491e+02
-1.719795658110821819e+02
-1.517969331434429705e+02
2.854814025690650681e+01
1.577805224894843263e+02
1.850864858375734343e+02
1.839450859961423248e+02
6.754409671978105223e+01
-9.023301504547345075e+01
-8.738990881638872565e+01
-1.780243823570974726e+01
-7.161675524145236338e+00
8.839047642673378391e+00
-2.504523426742902359e+01
-1.130048039080140541e+02
-6.237224005983108555e+01
3.139803423303131069e+01
-2.353856703417752527e+01
-1.427787238665881020e+01
9.462052056152938917e+01
-1.531769884400271131e+01
-1.576005697196310109e+02
3.125097289222475894e+01
2.139903473206842079e+02
9.464016048857740770e+01
1.689857139559467569e+01
7.093762680086165062e+01
-3.954875020346327830e+01
-1.848712281513213327e+02
-8.037429734490351052e+01
8.768474834089897740e+01
7.148814700673490563e+01
-2.686334339794009907e+01
-7.241565026170397346e+01
-1.050960115395739649e+02
-1.219698372672763753e+02
-2.040218841978321507e+01
1.423324518269510861e+02
1.677044941294021498e+02
6.906761918440486170e+01
-3.570596655239446360e+00
-7.721766556523604663e+01
-1.546708551925312634e+02
-8.935449460328942450e+01
7.097237256370442537e+01
1.487802911286682388e+02
1.553430818626447092e+02
1.354858599079042563e+02
6.555038072632736146e+01
-3.034780533229530874e+01
-1.610313018716656757e+02
-2.830337138248112865e+02
-2.350776277183814784e+02
-8.298735276473689737e+01
-1.465919534044975236e+01
6.332841279747387375e+01
1.893865505758760719e+02
1.643927066301496041e+02
4.494686404766449073e+01
4.732890757288862460e+01
1.298570022214910580e+02
1.649303829434060731e+02
7.279433333944501783e+01
-1.365397684837503220e+02
-2.368039373701298302e+02
-1.701324199687175280e+02
-1.435991297713131587e+02
-7.189769618669362217e+01
1.291989066535798258e+02
1.241009307622720002e+02
-9.367294094165856677e+01
-1.266218487437240299e+02
4.038025858442522065e+01
2.575470743217424001e+02
3.939084082127528177e+02
1.395369259474877879e+02
-2.678416404764337244e+02
-2.933188177995658066e+02
-3.012293976886695077e+02
-4.347811677728406039e+02
9.776304870502134747e+01
8.257297648526920284e+02
4.642143621507198077e+02
-2.394180709427580780e+02
-1.271267282982271780e+02
-6.125199200308883718e+01
-5.142319750082995142e+02
-4.256724412697930120e+02
1.766119393390170558e+02
3.064207042689800460e+02
1.349441897843385618e+02
2.386483676431174104e+02
4.127560354921291719e+02
3.177093888312128342e+02
-6.923426373733836670e+01
-4.945589856385222447e+02
-5.706939808965100838e+02
-3.133655337970677124e+02
-6.390486868670148368e+01
6.487725711897751069e+01
1.076383963439028832e+02
9.248396462265668561e+01
1.866771406751460205e+01
-9.901524298888998032e+01
1.365688789848834404e+02
7.981372438544946135e+02
8.126750876872224580e+02
-1.425053177164685962e+02
-6.823273936345455013e+02
-4.582058433662426751e+02
-3.847523060075094463e+02
-5.580318083352648273e+01
7.980586638190449094e+02
7.181830857782956627e+02
-4.122117392187067821e+02
-1.013639891438497557e+03
-9.651299375471353414e+02
-7.016262473342674184e+02
2.613299216691534070e+02
1.242364350545794878e+03
9.660779242298200415e+02
1.431325054280670770e+02
-1.136102222731701090e+02
-1.355869444222927882e+02
-1.863079664500868375e+02
4.940401681851307103e+01
3.795029646617784920e+02
2.737823553176626774e+02
-2.513652795898218528e+02
-3.679351781157679966e+02
2.831722959298961086e+02
4.220994364414588631e+02
-5.715828823200674833e+02
-1.095033197320804902e+03
-5.614443295599197654e+02
-2.289523290784082405e+02
2.664871497933917155e+01
8.476475639382737199e+02
1.043501837697308247e+03
-1.334976066214983348e+02
-1.402301162310897553e+03
-1.290591358607424127e+03
2.963467482988158963e+02
1.646356037263217331e+03
1.511067478134059456e+03
1.355852607516566877e+03
1.637907612597482057e+03
3.351553725513622908e+02
-1.405042318672809415e+03
-8.770497794024323639e+02
-3.372015026203201842e+02
-1.956369236045646858e+03
-2.857508836685928145e+03
-1.831649262149203878e+03
-8.434879053518717456e+02
1.831213763074366057e+02
1.351518135799428137e+03
1.575904605334410917e+03
2.014124712645499812e+03
2.986399962500709080e+03
2.192282220343697190e+03
4.230845001802521210e+02
7.552913594315904788e+01
-4.148739140887336703e+02
-2.216704946186399866e+03
-2.468659261330346453e+03
-4.075939628333097176e+01
1.633875974284596850e+03
-3.121793979281197267e+02
-3.585009889446705984e+03
-3.696663535354209671e+03
-1.035396287035703608e+03
6.660041623049545478e+02
1.873531939953729079e+03
4.108663279865223558e+03
3.944334271910588996e+03
-1.171973559231660573e+02
-2.855638190061906698e+03
-7.661997011809382911e+02
2.955899599071679404e+03
3.537250197784781903e+03
2.408758952111388396e+02
-2.998030905685093785e+03
-3.391341189284783923e+03
-3.010527461152891192e+03
-2.541485403566969580e+03
4.124892813837511767e+02
3.559718069472148272e+03
2.403947868847496920e+03
-7.446837709470029267e+02
-1.117686625006725308e+03
9.347026719466487066e+02
2.201125512014642482e+03
6.858923746744363825e+01
-4.523500585760733884e+03
-5.523596708123358439e+03
-6.809135354788635368e+02
3.390732980598412723e+03
4.250007102202509486e+03
7.164620729699208823e+03
8.760173155567505091e+03
8.109859770325897443e+02
-8.440373783498011107e+03
-6.661945675170002687e+03
-2.016868959524249249e+03
-4.453601487700359939e+03
-5.568371252013558660e+03
-1.066543799867991538e+03
1.473656061905205888e+03
3.277621984171248187e+03
6.649796141859665113e+03
5.222052617688552345e+03
2.396193571053882806e+03
2.610822481018188228e+03
-3.066377210972112152e+03
-7.937551910027980739e+03
2.495100229821915946e+03
8.632866275209442392e+03
-3.961883733626322737e+03
-8.028439781397603838e+03
1.124483362735993069e+03
-3.258807428058368259e+03
-9.076543289235984048e+03
3.823347117179819634e+03
9.937785298422648339e+03
-3.759184733704297514e+02
-6.397448173449927253e+02
5.651386169418535246e+03
1.511783795819892703e+03
-1.383358209080397785e+02
3.392846493643416579e+03
-2.747915587294801298e+03
-9.280268412064144286e+03
-4.793554414028711108e+03
-3.766953341116291085e+02
8.310455107674389410e+02
4.423072856086720094e+03
4.422271686543286705e+03
-1.048021621017125199e+03
-3.812250324645457567e+03
-1.581036118161420745e+03
2.833986597810960575e+03
5.894586752853255348e+03
4.640546500647744324e+03
1.195708191538411711e+03
-2.898346931163797308e+03
-6.514765213320328257e+03
-4.051311773040658863e+03
3.909337368654939837e+02
-1.955461315872657678e+03
-2.428698841792096573e+03
2.758031085928883840e+03
1.794720606189418390e+02
-3.148762436297758995e+03
6.674338225654829330e+03
1.054303250848279276e+04
-1.605902520724136366e+03
-5.911689957730338392e+03
-5.757061999221999713e+02
-3.694804551752755287e+03
-5.124177677619906717e+03
5.008322121724456338e+03
9.529805421247290724e+03
3.138714418823203687e+03
-2.180187518444004127e+03
-5.036892132856716671e+03
-6.949149505560634680e+03
-5.224869400116106590e+03
-2.061024379587478052e+03
1.560882423649131397e+03
5.510364452206281385e+03
4.654695329381806005e+03
9.065071534707061573e+02
9.560441734523815285e+02
1.393084999553188254e+03
-6.610715868058217666e+02
-5.186847552262771615e+02
6.182576656175293692e+02
-6.101318374405765326e+02
-1.127416036838807941e+03
-6.301268756485019367e+02
-1.246157982233635266e+03
-8.764905111187804323e+02
3.367823668822983763e+01
-7.910819763370781175e+02
-8.363682598654257845e+02
2.364180352382668957e+02
-3.690582393024794214e+02
-5.875941171309366382e+02
9.951957731120826338e+02
1.206805613382776301e+03
6.894549844234525153e+02
1.931187094332795823e+03
2.433848838397899726e+03
7.480794968251352657e+02
-4.009564106818376104e+02
-6.378402543978072572e+02
-1.708682744215998810e+03
-2.617025122752345851e+03
-1.674580035437833430e+03
-1.270245549268028498e+02
1.897437922009174542e+02
1.139761119159305736e+02
7.333944943360270372e+02
7.813398118973341298e+02
9.316862541917185325e+00
1.755268475508342192e+02
7.634503103716862142e+02
2.945969828525775256e+02
-7.300144081152900810e+01
2.467996094107664362e+02
8.202792177977039501e+01
-1.362214456950837587e+02
1.591539365302036515e+02
1.268485961792583225e+02
-8.946413244252052266e+01
-2.539753150230993697e+02
-7.918077156536876373e+02
