-0.001337364315987
0.001569837331772
0.005391672253609
0.006271049380302
0.004024237394333
0.003800287842751
0.003935277462006
0.004303529858589
0.006612107157707
0.006566405296326
0.004915252327919
0.003128021955490
0.000655904412270
0.000917360186577
0.002376452088356
0.003231808543205
0.003997504711151
0.000329479575157
-0.005567848682404
-0.006959110498428
-0.005928263068199
-0.005226001143456
-0.004302233457565
-0.004426598548889
-0.004904046654701
-0.004936650395393
-0.005609869956970
-0.004502445459366
-0.002207681536674
-0.002253979444504
-0.002368465065956
-0.002819970250130
-0.003996744751930
-0.000757172703743
0.004839047789574
0.007551908493042
0.007025137543678
0.004646211862564
0.003739356994629
0.004084408283234
0.003937557339668
0.004636093974113
0.004894107580185
0.003981843590736
0.003309026360512
0.002688109874725
0.002252325415611
0.002381056547165
0.002623006701469
0.000719785690308
-0.003384217619896
-0.005747526884079
-0.006368353962898
-0.006379351019859
-0.004631102085114
-0.003292605280876
-0.003626972436905
-0.003390058875084
-0.002694070339203
-0.003026425838470
-0.003268986940384
-0.002311393618584
-0.001626938581467
-0.002254426479340
-0.003059178590775
-0.001169189810753
0.003637582063675
0.006138831377029
0.005691930651665
0.005853235721588
0.004880920052528
0.002622991800308
0.002058640122414
0.002924263477325
0.003977552056313
0.003628313541412
0.002091988921165
0.001194596290588
0.000312834978104
0.001235485076904
0.004392832517624
0.002907335758209
-0.003358736634254
-0.006268501281738
-0.005704894661903
-0.005480065941811
-0.004442781209946
-0.003165930509567
-0.002465993165970
-0.000905752182007
-0.000698223710060
-0.002303674817085
-0.003041520714760
-0.003214135766029
-0.002034038305283
-0.000066176056862
-0.000094696879387
0.000434756278992
0.002601593732834
0.002952083945274
0.002165734767914
0.002822726964951
0.004078209400177
0.004128873348236
0.002832502126694
0.001156717538834
0.000774264335632
0.001943409442902
0.003079697489738
0.003796651959419
0.002704143524170
0.000001460313797
-0.000375464558601
-0.000775352120399
-0.003995239734650
-0.004635199904442
-0.002529785037041
-0.002199858427048
-0.002034500241280
-0.001526907086372
-0.002651914954185
-0.003009811043739
-0.002082318067551
-0.002255827188492
-0.002594634890556
-0.003158822655678
-0.003585487604141
-0.002071753144264
-0.000821903347969
0.001257866621017
0.005046546459198
0.004977449774742
0.002735182642937
0.002718925476074
0.003333464264870
0.004865735769272
0.005614370107651
0.003421977162361
0.001832410693169
0.001218065619469
0.000620767474174
0.001389607787132
0.001236706972122
0.000624775886536
0.002078756690025
0.001069337129593
-0.002906724810600
-0.003702908754349
-0.002408415079117
-0.002614021301270
-0.003470242023468
-0.004507854580879
-0.005253642797470
-0.004979327321053
-0.003951773047447
-0.002306506037712
-0.001425415277481
-0.002238988876343
-0.003126502037048
-0.003269925713539
-0.002809390425682
-0.000325843691826
0.003923147916794
0.005887627601624
0.004410639405251
0.002736881375313
0.002472788095474
0.003979995846748
0.006083756685257
0.005830377340317
0.003773823380470
0.001733332872391
0.000638276338577
0.001077502965927
0.001276075839996
0.001955345273018
0.003020346164703
-0.000086843967438
-0.004307344555855
-0.004341974854469
-0.003274157643318
-0.002682030200958
-0.001973569393158
-0.002572923898697
-0.003128275275230
-0.002815440297127
-0.003162696957588
-0.002836212515831
-0.001243263483047
-0.000710040330887
-0.001178905367851
-0.002402320504189
-0.004165932536125
-0.002137377858162
0.003774195909500
0.006949782371521
0.005804732441902
0.004307821393013
0.003711491823196
0.002574801445007
0.001420170068741
0.001596003770828
0.002047359943390
0.001689687371254
0.001670807600021
0.001992926001549
0.000845223665237
0.000286743044853
0.001521691679955
-0.000296249985695
-0.003269225358963
-0.002197191119194
-0.001587018370628
-0.003274112939835
-0.003640457987785
-0.003436118364334
-0.002794608473778
-0.001511693000793
-0.001698046922684
-0.002091303467751
-0.002032041549683
-0.003122523427010
-0.002695441246033
-0.001523256301880
-0.003060743212700
-0.001751706004143
0.003114461898804
0.004423409700394
0.003674343228340
0.003635793924332
0.002945199608803
0.001481801271439
-0.000092387199402
-0.000094398856163
0.000759959220886
0.001523330807686
0.003203853964806
0.004627257585526
0.004541069269180
0.003094077110291
0.002441346645355
0.001936078071594
-0.001443922519684
-0.003652438521385
-0.003151655197144
-0.003019645810127
-0.002316907048225
-0.001747801899910
-0.001434877514839
-0.000792205333710
-0.001290455460548
-0.002007216215134
-0.003194004297256
-0.004264399409294
-0.003503054380417
-0.002904534339905
-0.002493634819984
-0.000648960471153
0.001694619655609
0.002584457397461
0.002313375473022
0.002955287694931
0.003527507185936
0.003140240907669
0.002047985792160
0.000775322318077
0.001869291067123
0.003000929951668
0.002500444650650
0.003776773810387
0.004083648324013
0.002283245325089
0.001416429877281
-0.001408666372299
-0.004654869437218
-0.003398314118385
-0.002009913325310
-0.003349080681801
-0.003940343856812
-0.003940105438232
-0.004003077745438
-0.003020167350769
-0.002165049314499
-0.002014845609665
-0.002697601914406
-0.003273665904999
-0.001765489578247
-0.000788435339928
-0.000599756836891
0.002611830830574
0.006198704242706
0.005767509341240
0.002616047859192
0.001171991229057
0.002445101737976
0.003406658768654
0.004046201705933
0.004020243883133
0.002274900674820
0.000675126910210
-0.000347688794136
0.000775426626205
0.003013044595718
0.002425849437714
0.001406595110893
-0.000138223171234
-0.003498658537865
-0.004433915019035
-0.003617078065872
-0.003538846969604
-0.003559276461601
-0.004009962081909
-0.004549488425255
-0.004122152924538
-0.002695828676224
-0.001393809914589
-0.000860571861267
-0.001058101654053
-0.001577526330948
-0.001365855336189
-0.000933468341827
0.001354888081551
0.005882918834686
0.006504073739052
0.003467977046967
0.002281725406647
0.002336636185646
0.002299368381500
0.002570569515228
0.002806901931763
0.002389103174210
0.000636518001556
-0.001085430383682
-0.000534802675247
0.001039117574692
0.001515060663223
0.002021238207817
0.001065284013748
-0.003285914659500
-0.006029278039932
-0.005382657051086
-0.004254579544067
-0.002718776464462
-0.001971393823624
-0.002521216869354
-0.003046214580536
-0.002634704113007
-0.000390022993088
0.001065090298653
0.001130059361458
0.001983344554901
0.000510543584824
-0.003001034259796
-0.001649945974350
0.004325434565544
0.007850572466850
0.008029878139496
0.007979020476341
0.006277397274971
0.003497391939163
0.001589477062225
-0.001812979578972
-0.004005387425423
-0.002091810107231
-0.001087129116058
-0.002319559454918
-0.002630054950714
-0.000192835927010
0.003339886665344
0.001951918005943
-0.002827018499374
-0.004589378833771
-0.005546241998672
-0.006249815225601
-0.003913134336472
-0.002129927277565
-0.001643955707550
-0.000104561448097
-0.000182166695595
-0.001807466149330
-0.001951292157173
-0.001053988933563
0.000268489122391
0.000937089323997
-0.000029385089874
0.000624388456345
0.004223316907883
0.006550535559654
0.006311312317848
0.006008461117744
0.004757255315781
0.001840278506279
-0.000125080347061
-0.000671014189720
0.000378459692001
0.002818256616592
0.003719300031662
0.003474891185760
0.002606153488159
0.000540286302567
-0.000120267271996
-0.001662313938141
-0.005533382296562
-0.006256625056267
-0.004936337471008
-0.004641070961952
-0.003781393170357
-0.002992868423462
-0.001797288656235
-0.000440254807472
-0.001423180103302
-0.002732545137405
-0.003478586673737
-0.004517108201981
-0.003436222672462
-0.001560598611832
-0.001353815197945
0.000331670045853
0.003620654344559
0.004280850291252
0.003155946731567
0.003165379166603
0.004238113760948
0.005509212613106
0.004879996180534
0.002754881978035
0.002561867237091
0.003187179565430
0.003475472331047
0.004306241869926
0.003959119319916
0.003133997321129
0.001926854252815
-0.002065137028694
-0.005743041634560
-0.005967497825623
-0.004667386412621
-0.003919139504433
-0.003914356231689
-0.003514975309372
-0.002600580453873
-0.001880198717117
-0.001799970865250
-0.002091243863106
-0.001866355538368
-0.002039253711700
-0.002628728747368
-0.002711355686188
-0.002241790294647
0.000370383262634
0.003916963934898
0.005222856998444
0.004440844058990
0.002844825387001
0.002294421195984
0.003353893756866
0.004873439669609
0.005476191639900
0.004067137837410
0.002341702580452
0.001256525516510
0.001200482249260
0.002313360571861
0.002181872725487
0.001254603266716
-0.001535862684250
-0.005536571145058
-0.004591748118401
-0.002963215112686
-0.004075035452843
-0.002998024225235
-0.003000795841217
-0.004752203822136
-0.004169076681137
-0.003350317478180
-0.002345949411392
-0.001026540994644
-0.001275673508644
-0.001877561211586
-0.002732619643211
-0.003038957715034
0.000318303704262
0.005233928561211
0.006699055433273
0.005307376384735
0.003611311316490
0.002410814166069
0.003131747245789
0.004084542393684
0.003738492727280
0.004622861742973
0.004891559481621
0.002528145909309
0.000477895140648
-0.000305175781250
0.000716120004654
0.002458065748215
0.000633254647255
-0.003517463803291
-0.005543425679207
-0.005284339189529
-0.004509761929512
-0.003552138805389
-0.002497628331184
-0.002739638090134
-0.003683581948280
-0.003381669521332
-0.002342090010643
-0.001459851861000
-0.001240015029907
-0.001234352588654
-0.001245349645615
-0.002106443047523
-0.001131311058998
0.002456322312355
0.005071461200714
0.006199911236763
0.006174787878990
0.004839673638344
0.002989873290062
0.001566410064697
0.001603364944458
0.002361401915550
0.002737045288086
0.002419039607048
0.001839742064476
0.000868380069733
-0.000289648771286
0.001188501715660
0.001290470361710
-0.003260552883148
-0.004970327019691
-0.004476547241211
-0.005488812923431
-0.004269048571587
-0.002404391765594
-0.001912653446198
-0.002031281590462
-0.002702206373215
-0.002467900514603
-0.002187058329582
-0.001938745379448
-0.000887528061867
-0.000759854912758
-0.001383006572723
-0.000129476189613
0.003650560975075
0.006313517689705
0.006457313895226
0.005685552954674
0.004172742366791
0.003316089510918
0.001815378665924
-0.000184714794159
0.001574859023094
0.004019066691399
0.003713846206665
0.002721965312958
0.001897588372231
0.001455247402191
0.001486316323280
0.001109942793846
-0.001766800880432
-0.005160152912140
-0.005883947014809
-0.006571099162102
-0.006585314869881
-0.004981100559235
-0.003859728574753
-0.002371370792389
-0.001912549138069
-0.001954540610313
-0.001737758517265
-0.003639951348305
-0.003786966204643
-0.001273840665817
-0.000022515654564
0.001418471336365
0.004141539335251
0.005524292588234
0.004502117633820
0.004251077771187
0.004928380250931
0.004219040274620
0.003567561507225
0.002380490303040
0.001755326986313
0.002843037247658
0.003347665071487
0.005005508661270
0.005193859338760
0.002580806612968
0.001781687140465
-0.000870272517204
-0.005228176712990
-0.005564689636230
-0.004256457090378
-0.004090666770935
-0.004362329840660
-0.004491940140724
-0.004972383379936
-0.004837423563004
-0.003214284777641
-0.002464622259140
-0.002249315381050
-0.002180054783821
-0.002906262874603
-0.003074094653130
-0.002423107624054
0.001133009791374
0.006012469530106
0.006857350468636
0.004580348730087
0.002029404044151
0.001732125878334
0.003766551613808
0.004957407712936
0.004827320575714
0.003763779997826
0.002540096640587
0.001429617404938
0.000240564346313
0.000327959656715
0.001688092947006
0.003245800733566
0.001508206129074
-0.003131926059723
-0.004545420408249
-0.003934592008591
-0.003247991204262
-0.001650154590607
-0.002062693238258
-0.003246337175369
-0.003316551446915
-0.003629192709923
-0.002913117408752
-0.001503258943558
-0.001148819923401
-0.000969797372818
-0.001122757792473
-0.002351403236389
-0.001032352447510
0.003809347748756
0.005736708641052
0.004190996289253
0.003266066312790
0.001972660422325
0.001497700810432
0.003336310386658
0.003624528646469
0.002107217907906
0.001924321055412
0.001060575246811
-0.001634567975998
-0.002075225114822
0.000132575631142
0.002047330141068
0.001170843839645
-0.002718880772591
-0.004289180040359
-0.003007754683495
-0.002836897969246
-0.002053633332253
-0.000298351049423
0.000405207276344
-0.000887051224709
-0.003632307052612
-0.003912568092346
-0.002015337347984
-0.000844612717628
0.000028952956200
-0.000009924173355
-0.000950098037720
-0.000643119215965
0.001788571476936
0.003863111138344
0.003584966063499
0.003537848591805
0.003894105553627
0.003759831190109
0.004481732845306
0.003283545374870
0.000517472624779
0.000255197286606
0.000771641731262
0.000721186399460
0.000443622469902
-0.000057950615883
0.001263663172722
0.001947760581970
-0.000781521201134
-0.002757877111435
-0.003125295042992
-0.004301100969315
-0.004758998751640
-0.004282563924789
-0.003461554646492
-0.002001821994781
-0.002127632498741
-0.003249973058701
-0.003360748291016
-0.003960639238358
-0.003569155931473
-0.001421704888344
-0.001117333769798
-0.000251263380051
0.003501921892166
0.004839703440666
0.004481300711632
0.005893930792809
0.005418032407761
0.003961667418480
0.003784760832787
0.002092421054840
0.001449093222618
0.003120034933090
0.004090175032616
0.004690438508987
0.003381967544556
0.001332581043243
0.001545369625092
-0.000318050384521
-0.004081562161446
-0.005004957318306
-0.004946023225784
-0.005322411656380
-0.005255043506622
-0.005092114210129
-0.003716841340065
-0.002125054597855
-0.002424612641335
-0.002359330654144
-0.002271205186844
-0.003596097230911
-0.002721548080444
-0.001175940036774
-0.001492097973824
0.000690072774887
0.004526793956757
0.006032764911652
0.005846485495567
0.004774674773216
0.003821521997452
0.003717765212059
0.003717586398125
0.003382176160812
0.003021329641342
0.002598285675049
0.002119481563568
0.002759262919426
0.003054454922676
0.002603113651276
0.002942070364952
0.000103026628494
-0.004707291722298
-0.005725651979446
-0.005025729537010
-0.004201546311378
-0.004017099738121
-0.005075812339783
-0.004527956247330
-0.004076763987541
-0.004417732357979
-0.003008157014847
-0.001787081360817
-0.001489520072937
-0.001230314373970
-0.002480804920197
-0.004216924309731
-0.002280220389366
0.002729326486588
0.004967674612999
0.003712192177773
0.002682685852051
0.003029838204384
0.004117399454117
0.004481628537178
0.004061192274094
0.004521012306213
0.005178734660149
0.004325732588768
0.002782776951790
0.001740887761116
0.001623883843422
0.002886578440666
0.002113208174706
-0.002114921808243
-0.003501087427139
-0.001730933785439
-0.001566693186760
-0.001662209630013
-0.002038791775703
-0.004451259970665
-0.006042182445526
-0.005416616797447
-0.004625633358955
-0.002892151474953
0.000030830502510
-0.000536620616913
-0.003824263811111
-0.004049628973007
-0.001324266195297
0.002072706818581
0.003974243998528
0.003550767898560
0.003129690885544
0.002340257167816
0.001219108700752
0.002037078142166
0.003864660859108
0.004788845777512
0.004353940486908
0.002871930599213
0.000658810138702
-0.000309467315674
0.001596510410309
0.002729818224907
0.000624969601631
-0.002643525600433
-0.004165589809418
-0.003412991762161
-0.003992125391960
-0.004417225718498
-0.002160981297493
-0.001754909753799
-0.002645060420036
-0.002837881445885
-0.003304481506348
-0.001979902386665
-0.000932887196541
-0.000772744417191
0.000345647335052
-0.000925809144974
-0.001395419239998
0.002090781927109
0.004293382167816
0.005087479948997
0.005221173167229
0.003720164299011
0.003361031413078
0.003273725509644
0.002008736133575
0.001585394144058
0.001940622925758
0.002863541245461
0.004285916686058
0.006191611289978
0.010042533278465
0.014293670654297
0.015659242868423
0.013470426201820
0.010815292596817
0.009855896234512
0.007924199104309
0.004497066140175
0.001616284251213
-0.000694453716278
-0.003646284341812
-0.007300600409508
-0.010121732950211
-0.012381851673126
-0.013585552573204
-0.013138636946678
-0.012588903307915
-0.010338529944420
-0.004925027489662
0.001531302928925
0.005258098244667
0.006414115428925
0.008458048105240
0.008970350027084
0.007431402802467
0.004813551902771
-0.000649482011795
-0.005565658211708
-0.009411066770554
-0.012978851795197
-0.016503930091858
-0.021587446331978
-0.024256914854050
-0.025822371244431
-0.028332009911537
-0.028928212821484
-0.025798775255680
-0.017474882304668
-0.010332480072975
-0.003494761884212
0.006200164556503
0.013341411948204
0.021464973688126
0.028054103255272
0.032965511083603
0.037571862339973
0.034708902239799
0.034370765089989
0.035014778375626
0.033168867230415
0.036760538816452
0.037705913186073
0.039812237024307
0.039704144001007
0.039453595876694
0.047335073351860
0.045786365866661
0.056742846965790
0.052718609571457
-0.025994166731834
-0.115824557840824
-0.181362986564636
-0.221766471862793
-0.203560784459114
-0.178378760814667
-0.173548698425293
-0.167035818099976
-0.172598794102669
-0.175094112753868
-0.171568855643272
-0.172035798430443
-0.165527984499931
-0.159775018692017
-0.150577858090401
-0.135779976844788
-0.121892131865025
-0.102166846394539
-0.081895940005779
-0.063353478908539
-0.046736881136894
-0.033287659287453
-0.019554331898689
-0.009461581707001
-0.000159323215485
0.004480838775635
0.000490128993988
-0.002270400524139
-0.004757732152939
-0.005194216966629
-0.001907318830490
0.002743154764175
0.015685006976128
0.036521509289742
0.065885558724403
0.105191677808762
0.150513529777527
0.201595947146416
0.251252889633179
0.294746309518814
0.329800456762314
0.354275882244110
0.369380176067352
0.366308867931366
0.345494598150253
0.309565246105194
0.253245919942856
0.183312475681305
0.102517217397690
0.015887826681137
-0.070369213819504
-0.160957500338554
-0.246758148074150
-0.312453389167786
-0.359538227319717
-0.408029675483704
-0.450874567031860
-0.459620743989944
-0.455467879772186
-0.455327391624451
-0.446793168783188
-0.420148789882660
-0.356967687606812
-0.277055621147156
-0.192974090576172
-0.108983606100082
-0.067583799362183
-0.021993935108185
0.061727240681648
0.106795251369476
0.114989161491394
0.120319545269012
0.110010117292404
0.096418097615242
0.087198004126549
0.080558478832245
0.077362552285194
0.075646921992302
0.078468799591064
0.083013027906418
0.083740897476673
0.075006030499935
0.061020463705063
0.043387979269028
0.021371588110924
0.003251880407333
-0.011057317256927
-0.008870795369148
0.015049129724503
0.073062308132648
0.191177427768707
0.378511756658554
0.688780546188354
0.976826667785645
0.923145532608032
0.623955309391022
0.367381483316422
0.168129831552505
0.012998104095459
-0.092498794198036
-0.176695734262466
-0.231692761182785
-0.278702080249786
-0.317704498767853
-0.342798054218292
-0.374016135931015
-0.398234963417053
-0.426747322082520
-0.458277702331543
-0.464286863803864
-0.469323873519897
-0.480454802513123
-0.470050543546677
-0.435679823160172
-0.382466793060303
-0.314592957496643
-0.236016154289246
-0.149416476488113
-0.062349110841751
0.019601583480835
0.094779044389725
0.163029909133911
0.220688104629517
0.261789023876190
0.287653416395187
0.299371808767319
0.292948961257935
0.271827787160873
0.242860734462738
0.208223462104797
0.171400278806686
0.137894555926323
0.112770423293114
0.095003604888916
0.082545489072800
0.079906955361366
0.085226550698280
0.091368511319160
0.097474411129951
0.104702830314636
0.110771596431732
0.111032329499722
0.104734301567078
0.092651978135109
0.073756612837315
0.048617869615555
0.018419854342937
-0.013689484447241
-0.046748023480177
-0.081036128103733
-0.112840004265308
-0.141578212380409
-0.164571642875671
-0.176974773406982
-0.180340886116028
-0.176888018846512
-0.168271631002426
-0.155741482973099
-0.142520651221275
-0.130308747291565
-0.117280498147011
-0.107420414686203
-0.100854307413101
-0.093775719404221
-0.085755109786987
-0.076820880174637
-0.069963738322258
-0.061045944690704
-0.052377372980118
-0.053454205393791
-0.049852669239044
-0.037219330668449
-0.031483709812164
-0.028755813837051
-0.024320244789124
-0.021299451589584
-0.017194718122482
-0.014008760452271
-0.013142317533493
-0.012294441461563
-0.010531395673752
-0.007713139057159
-0.006249696016312
-0.008118420839310
-0.011425971984863
-0.012221485376358
-0.011144399642944
-0.011194199323654
-0.011154949665070
-0.010862201452255
-0.011044442653656
-0.011923611164093
-0.013872295618057
-0.014251917600632
-0.013947069644928
-0.014720052480698
-0.013931453227997
-0.013631403446198
-0.015241533517838
-0.013783097267151
-0.009290814399719
-0.007010549306870
-0.007814615964890
-0.009449005126953
-0.011305034160614
-0.011921942234039
-0.009896785020828
-0.007497012615204
-0.005960702896118
-0.004954427480698
-0.005409240722656
-0.006311386823654
-0.006791502237320
-0.007156193256378
-0.006460785865784
-0.007267117500305
-0.010772764682770
-0.012514382600784
-0.012872427701950
-0.012751638889313
-0.010584801435471
-0.010196238756180
-0.010902047157288
-0.009128451347351
-0.008233308792114
-0.008951723575592
-0.009505391120911
-0.007727384567261
-0.001815885305405
0.001009702682495
-0.001908242702484
-0.002223700284958
0.000395208597183
0.000868111848831
0.000026106834412
-0.000624537467957
-0.001340776681900
-0.002263307571411
-0.003118306398392
-0.003044396638870
-0.002476394176483
-0.002303183078766
-0.001839756965637
-0.001405358314514
-0.002129554748535
-0.002941936254501
-0.003128647804260
-0.004819780588150
-0.007862746715546
-0.008477210998535
-0.007845908403397
-0.009197533130646
-0.009746760129929
-0.008539617061615
-0.007674992084503
-0.005950748920441
-0.004216074943542
-0.004275560379028
-0.004339843988419
-0.003816395998001
-0.002920538187027
-0.001924574375153
-0.001023083925247
0.001593559980392
0.002811878919601
-0.000372081995010
-0.002402663230896
-0.001345336437225
0.000162631273270
0.000822752714157
-0.001313626766205
-0.003115117549896
-0.001569479703903
-0.000064164400101
0.000353008508682
0.000762611627579
0.001008898019791
0.001078337430954
0.001169919967651
-0.000001192092896
-0.002963036298752
-0.003365606069565
-0.002251684665680
-0.003602534532547
-0.003388613462448
-0.003125756978989
-0.005381405353546
-0.004494905471802
-0.001969635486603
-0.001761972904205
-0.002084016799927
-0.002064913511276
-0.001946002244949
-0.002698689699173
-0.003912538290024
-0.001985996961594
0.002845406532288
0.003701269626617
0.001504778862000
0.002461850643158
0.002114504575729
0.002168148756027
0.003141880035400
-0.005278289318085
-0.009741187095642
-0.001783519983292
0.001424759626389
0.001097798347473
0.002229213714600
0.002815783023834
0.006162375211716
0.004529893398285
-0.002348780632019
-0.004343986511230
-0.004028081893921
-0.003737717866898
-0.002575248479843
-0.002485215663910
-0.003272652626038
-0.003499865531921
-0.002408266067505
-0.000920563936234
-0.000144153833389
-0.000724494457245
-0.001494526863098
-0.001460283994675
-0.001836866140366
0.000804066658020
0.006207317113876
0.007772624492645
0.006434857845306
0.005054026842117
0.003763884305954
0.002940952777863
0.002477139234543
0.003081828355789
0.003425061702728
0.002849847078323
0.002825647592545
0.003179401159286
0.003642916679382
0.003759056329727
0.003800123929977
0.002122700214386
-0.001898437738419
-0.003436505794525
-0.003102034330368
-0.002737462520599
-0.001154601573944
-0.001016587018967
-0.001542389392853
-0.001768589019775
-0.002786874771118
-0.002336800098419
-0.001776546239853
-0.002141982316971
-0.001710474491119
-0.001377642154694
-0.002074986696243
-0.001929193735123
0.002148628234863
0.005476742982864
0.004629254341125
0.004844605922699
0.004705727100372
0.005145609378815
0.008181005716324
0.005769461393356
0.001843899488449
0.003232359886169
0.003482282161713
0.001924693584442
0.002182424068451
0.005245387554169
0.009361386299133
0.008304089307785
0.003769904375076
0.001813292503357
0.000482648611069
-0.001182407140732
-0.000353097915649
0.001063197851181
0.000711113214493
0.000541657209396
0.000818967819214
0.000692814588547
0.000246584415436
-0.000288754701614
0.000726193189621
0.001329541206360
-0.000076055526733
0.000777304172516
0.004133701324463
0.005867928266525
0.005483895540237
0.005451202392578
0.005728125572205
0.004895806312561
0.004537075757980
0.004406601190567
0.004372566938400
0.005629181861877
0.005689829587936
0.005234271287918
0.005601167678833
0.005523115396500
0.005263566970825
0.002518743276596
-0.000711768865585
0.000009298324585
0.001082092523575
0.000546097755432
-0.000355422496796
-0.000775665044785
0.000399231910706
0.001102149486542
0.000993728637695
0.001261591911316
0.000747680664062
0.000581264495850
0.001886785030365
0.002484053373337
0.002060592174530
0.003378987312317
0.006194233894348
0.006730675697327
0.005341500043869
0.005695611238480
0.007182329893112
0.007682055234909
0.007476031780243
0.006522268056870
0.006162554025650
0.006820261478424
0.006349325180054
0.006374537944794
0.006836265325546
0.006047755479813
0.005830466747284
0.003435045480728
-0.000649034976959
-0.000662833452225
0.000251024961472
-0.000613719224930
-0.000876784324646
-0.000924021005630
-0.000962764024734
-0.000951707363129
-0.000149130821228
0.002137988805771
0.002903491258621
0.001664191484451
0.001682549715042
0.002413153648376
0.002571433782578
0.005242079496384
0.010202705860138
0.012049168348312
0.010075598955154
0.008155465126038
0.008034467697144
0.008862793445587
0.009209513664246
0.008278161287308
0.007129728794098
0.006825953722000
0.006259351968765
0.006270945072174
0.007922351360321
0.008194506168365
0.005265921354294
0.000785678625107
-0.001398772001266
-0.001097798347473
-0.001415610313416
-0.000611305236816
-0.003082871437073
-0.010040700435638
-0.007411241531372
0.001137912273407
0.002255052328110
0.002068459987640
0.003560006618500
0.002884656190872
0.002595126628876
0.002633184194565
0.002252429723740
0.004474699497223
0.009044438600540
0.011258542537689
0.010457158088684
0.010209709405899
0.009670466184616
0.008760452270508
0.009768068790436
0.010241866111755
0.010028034448624
0.010366231203079
0.008946269750595
0.007908314466476
0.008489519357681
0.008187234401703
0.007993906736374
0.005826324224472
0.001270771026611
0.000246286392212
0.001141846179962
0.000917136669159
0.002320766448975
0.004253178834915
0.004358857870102
0.003150850534439
0.002085268497467
0.002013683319092
0.001968383789062
0.001966655254364
0.002674132585526
0.003403753042221
0.003070592880249
0.003679931163788
0.007742345333099
0.010637879371643
0.009767144918442
0.008797973394394
0.008477210998535
0.008549124002457
0.008320599794388
0.008795619010925
0.010497480630875
0.009104266762733
0.007273435592651
0.007954627275467
0.007205337285995
0.006089627742767
0.006084963679314
0.006320893764496
0.006244331598282
0.004815727472305
0.002821892499924
0.000566810369492
-0.000572532415390
-0.000855565071106
-0.002227693796158
-0.002853482961655
-0.003557652235031
-0.004477381706238
-0.003900200128555
-0.003489196300507
-0.002467602491379
-0.000954210758209
-0.000034570693970
0.001685380935669
0.003772109746933
0.004880920052528
0.004242435097694
0.004356324672699
0.005998909473419
0.005829781293869
0.004848465323448
0.004021272063255
0.004035711288452
0.006035834550858
0.007813781499863
0.009183958172798
0.010292828083038
0.012337192893028
0.014975741505623
0.013965174555779
0.012717679142952
0.014550060033798
0.016165629029274
0.015709206461906
0.012799277901649
0.009427487850189
0.008105307817459
0.009137988090515
0.008804693818092
0.007459148764610
0.007867366075516
0.000366464257240
-0.008649438619614
-0.003619402647018
0.001924902200699
0.002852350473404
0.005349159240723
0.002457275986671
-0.002083584666252
-0.004927501082420
-0.008838355541229
-0.011864602565765
-0.016839504241943
-0.020730435848236
-0.018428146839142
-0.012563496828079
-0.005699798464775
-0.000559136271477
0.003730759024620
0.007871389389038
0.009466037154198
0.008483141660690
0.005888581275940
0.006233647465706
0.009414687752724
0.009630888700485
0.009185761213303
0.010099679231644
0.010460674762726
0.011128112673759
0.011663138866425
0.012479379773140
0.013678684830666
0.012316226959229
0.010323941707611
0.010003149509430
0.008577242493629
0.008052259683609
0.010550677776337
0.010651558637619
0.007700711488724
0.005553305149078
0.003763571381569
0.002780243754387
0.002867087721825
0.002171352505684
0.001791194081306
0.001501709222794
-0.000199034810066
-0.000499188899994
0.001281380653381
0.002998262643814
0.004269346594810
0.001833960413933
-0.003427192568779
-0.004145041108131
-0.002534508705139
-0.003501459956169
-0.003602892160416
-0.002464413642883
-0.002570018172264
-0.002741426229477
-0.002087607979774
-0.001406744122505
-0.000985890626907
0.000173687934875
0.001254528760910
0.000660538673401
0.000822037458420
0.004355311393738
0.008936151862144
0.010999679565430
0.010802313685417
0.010204181075096
0.009193971753120
0.008321657776833
0.008590504527092
0.009191066026688
0.009621873497963
0.009390443563461
0.007848680019379
0.006540566682816
0.006265282630920
0.006475821137428
0.007052853703499
0.005618065595627
0.001581028103828
-0.000813305377960
-0.000982850790024
-0.001474425196648
-0.001357674598694
-0.000046372413635
0.000883772969246
0.001024901866913
0.000630527734756
0.000029623508453
0.000168919563293
0.001361817121506
0.002730652689934
0.003148108720779
0.002780467271805
0.003891974687576
0.006666928529739
0.007984071969986
0.008288756012917
0.009173840284348
0.008455485105515
0.006827816367149
0.006335899233818
0.005392789840698
0.004872575402260
0.006389304995537
0.007448568940163
0.007245779037476
0.006644010543823
0.005558803677559
0.005123659968376
0.003633573651314
-0.000117555260658
-0.001094445586205
0.000122502446175
-0.001325562596321
-0.002417132258415
-0.001294285058975
-0.000520870089531
-0.000151455402374
-0.000361487269402
-0.000549063086510
-0.000109732151031
-0.000413760542870
-0.000643685460091
-0.000325277447701
0.000298127532005
0.002421796321869
0.005011111497879
0.006236240267754
0.005963087081909
0.005268514156342
0.005472123622894
0.006525829434395
0.006869480013847
0.004378452897072
0.001926317811012
0.003436505794525
0.005654558539391
0.005834966897964
0.003923147916794
0.002712354063988
0.005965307354927
0.006928399205208
0.002665400505066
0.000991061329842
0.001281887292862
0.000596925616264
0.000031337141991
-0.001300245523453
-0.001929640769958
-0.001237228512764
-0.000843167304993
-0.000485122203827
-0.000602647662163
-0.001390025019646
-0.001178190112114
0.000150620937347
0.000558227300644
0.001564756035805
0.004545375704765
0.004877880215645
0.003025978803635
0.002642884850502
0.001841560006142
0.001607537269592
0.002377048134804
0.001779869198799
0.001157715916634
0.000627383589745
0.001244351267815
0.003492638468742
0.004239097237587
0.005204021930695
0.005832538008690
0.002675190567970
-0.000476211309433
-0.000923156738281
0.000041797757149
0.000845327973366
0.000274345278740
-0.000185191631317
-0.000457435846329
-0.000632792711258
0.000471070408821
0.001764535903931
0.002519056200981
0.002373158931732
0.002196058630943
0.002675011754036
0.002342358231544
0.004227876663208
0.008429884910583
0.007657662034035
0.003206163644791
0.001688882708549
0.001725569367409
0.002669617533684
0.005287036299706
0.004112720489502
0.001264035701752
0.002840444445610
0.004501730203629
0.004744753241539
0.004596546292305
0.004218608140945
0.005217492580414
0.002260148525238
-0.002896010875702
-0.004449725151062
-0.004724442958832
-0.003275975584984
-0.003533720970154
-0.003860056400299
-0.002749666571617
-0.010634079575539
-0.014928758144379
-0.006244510412216
-0.001731395721436
-0.000831812620163
0.000950470566750
-0.000678911805153
-0.001854851841927
-0.000525385141373
0.003023654222488
0.005400434136391
0.005294352769852
0.006174817681313
0.006286770105362
0.006966367363930
0.008277431130409
0.007629141211510
0.007601246237755
0.007571652531624
0.009182557463646
0.013082221150398
0.013410732150078
0.010933801531792
0.007789254188538
0.002361848950386
-0.003850519657135
-0.006953686475754
-0.006348505616188
-0.004565343260765
-0.003550231456757
-0.006255328655243
-0.008490532636642
-0.005177557468414
-0.003743231296539
-0.004897341132164
-0.004302009940147
-0.004158452153206
-0.002742260694504
-0.001474335789680
-0.002038836479187
0.000212460756302
0.003829330205917
0.005177810788155
0.005405232310295
0.005978181958199
0.005268275737762
0.003246232867241
0.002662256360054
0.002034381031990
0.002280816435814
0.004346609115601
0.004200398921967
0.003195807337761
0.001949563622475
0.000492677092552
0.001187026500702
0.000490874052048
-0.001727402210236
-0.003860861063004
-0.006646171212196
-0.006845980882645
-0.005410030484200
-0.004288703203201
-0.002951979637146
-0.002359494566917
-0.000916913151741
0.000196218490601
-0.000393345952034
0.000121787190437
0.000818461179733
0.001100510358810
0.001958474516869
0.003430292010307
0.005960807204247
0.006832838058472
0.005429148674011
0.004573822021484
0.004154562950134
0.004660502076149
0.006176605820656
0.005793720483780
0.004277259111404
0.004579409956932
0.005742520093918
0.006055563688278
0.005065411329269
0.002994224429131
0.001098752021790
-0.001594945788383
-0.004901483654976
-0.005054607987404
-0.003457605838776
-0.004057466983795
-0.005606114864349
-0.006145268678665
-0.006009519100189
-0.005243182182312
-0.004064455628395
-0.003957346081734
-0.003948971629143
-0.003524899482727
-0.006480619311333
-0.010108739137650
-0.007828027009964
-0.002080589532852
0.002010300755501
0.002555668354034
0.001954764127731
0.004932224750519
0.008756846189499
0.009457483887672
0.009761512279510
0.009560689330101
0.007499530911446
0.006277844309807
0.005363553762436
0.003933459520340
0.004340022802353
0.005771517753601
0.006254881620407
0.003693342208862
-0.001031816005707
-0.001753553748131
0.000311851501465
0.001186147332191
0.001426815986633
-0.002268403768539
-0.007809013128281
-0.008639156818390
-0.006953746080399
-0.005389600992203
-0.004185095429420
-0.003882601857185
-0.002932608127594
-0.002336800098419
-0.003500789403915
-0.002568006515503
0.002292677760124
0.005736708641052
0.005254268646240
0.004458546638489
0.004009917378426
0.003298461437225
0.003748297691345
0.004755675792694
0.004462033510208
0.003089427947998
0.002774000167847
0.002358868718147
0.000780284404755
0.002163529396057
0.004497125744820
0.002245008945465
-0.001467898488045
-0.003135249018669
-0.003520309925079
-0.003123566508293
-0.002546548843384
-0.001869827508926
-0.000937461853027
-0.001000538468361
-0.002175927162170
-0.001934841275215
-0.000149056315422
0.001086026430130
0.001831874251366
0.000870734453201
-0.001169398427010
0.000171363353729
0.003587260842323
0.005194678902626
0.005120068788528
0.004036992788315
0.002657681703568
0.001271575689316
0.000459074974060
0.001442447304726
0.002240717411041
0.001655861735344
0.001959964632988
0.001693159341812
-0.000993326306343
-0.001481786370277
0.001024648547173
0.000310197472572
-0.003681778907776
-0.005493462085724
-0.005113020539284
-0.005607724189758
-0.004884243011475
-0.000817954540253
0.002320453524590
0.002492681145668
0.001419454813004
-0.000472754240036
-0.001402094960213
-0.001396939158440
-0.001638144254684
-0.001192733645439
-0.000986263155937
-0.000013887882233
0.002686113119125
0.003632843494415
0.003593832254410
0.004882216453552
0.005130603909492
0.003927260637283
0.002811551094055
0.001350149512291
0.000459611415863
0.001199007034302
0.001798868179321
0.002291366457939
0.003025814890862
0.002473607659340
0.001850679516792
0.000292733311653
-0.003600761294365
-0.004856079816818
-0.003407463431358
-0.003688886761665
-0.004129827022552
-0.003777146339417
-0.002982154488564
-0.001293808221817
-0.001007571816444
-0.001957193017006
-0.002601251006126
-0.003416880965233
-0.003255724906921
-0.002342969179153
-0.001021176576614
0.002169400453568
0.005150541663170
0.005907684564590
0.004973486065865
0.003437563776970
0.002901554107666
0.003029614686966
0.003875643014908
0.004373237490654
0.003042444586754
0.002953276038170
0.003902912139893
0.003601744771004
0.002434775233269
0.000177875161171
-0.001250639557838
-0.002358496189117
-0.004952296614647
-0.005583047866821
-0.003914192318916
-0.002755686640739
-0.002463221549988
-0.002984672784805
-0.003564774990082
-0.002717420458794
-0.001479923725128
-0.001627594232559
-0.001032754778862
-0.000213593244553
-0.001602739095688
-0.002101331949234
-0.001440167427063
0.000437080860138
0.004552677273750
0.005059391260147
0.002721354365349
0.003011390566826
0.003512039780617
0.003400221467018
0.004641324281693
0.005617737770081
0.004837781190872
0.003585800528526
0.002723127603531
0.002668768167496
0.002933397889137
0.002093195915222
0.002597168087959
0.001739099621773
-0.003853976726532
-0.005977720022202
-0.004165992140770
-0.003081411123276
-0.001682952046394
-0.002935200929642
-0.006508484482765
-0.008873701095581
-0.007402464747429
-0.004131913185120
-0.002853855490685
0.000136539340019
-0.003775000572205
-0.011723175644875
