-8.017444294136796088e+04
-8.051643810387652775e+04
-8.918841902624051727e+04
-9.428380307732567599e+04
-9.991720595173431502e+04
-8.146384497535387345e+04
-8.293343712276598671e+04
-9.014890502944594482e+04
-9.043208850977015391e+04
-9.720430476176818775e+04
-8.350639833490189631e+04
-8.780672887410892872e+04
-8.874795610422141908e+04
-8.916758298970788019e+04
-9.184003357477774261e+04
-8.735410281998428400e+04
-9.107716447737121780e+04
-8.750665336477418896e+04
-8.948347863690087979e+04
-8.684810381007916294e+04
-9.106803778682403208e+04
-9.057996692756100674e+04
-8.837421883595827967e+04
-8.915192018703151552e+04
-8.553735726667223207e+04
-9.176782766807499866e+04
-8.852417411947796063e+04
-8.966977166280476376e+04
-8.813107697711599758e+04
-8.777377418947986735e+04
-8.998969533527974272e+04
-8.822595958895269723e+04
-8.999595308747414674e+04
-8.823683276187804586e+04
-9.015050619188968267e+04
-8.793427341710489418e+04
-8.892555984188153525e+04
-8.903133427594001114e+04
-8.916356464679446071e+04
-9.038509328605950577e+04
-8.771691911118039570e+04
-8.934543479831991135e+04
-8.838673978729717783e+04
-8.973624655994806380e+04
-8.938082752450670523e+04
-8.869515276512139826e+04
-8.905278268974096864e+04
-8.870514314212021418e+04
-8.936515897537331330e+04
-8.864610680587403476e+04
-8.950781680603513087e+04
-8.892000980387078016e+04
-8.922902153740540962e+04
-8.885721838197113539e+04
-8.867091832395836536e+04
-8.941413888286572183e+04
-8.898693677447761002e+04
-8.923765062429555110e+04
-8.870418599873116182e+04
-8.892462385419222119e+04
-8.910089056090862141e+04
-8.912591191642786725e+04
-8.902145092936826404e+04
-8.886274359435182123e+04
-8.910833137014110980e+04
-8.897673879146057880e+04
-8.910971958999126218e+04
-8.918843700398810324e+04
-8.947237083261497901e+04
-8.916171583226534131e+04
-8.901044815519613621e+04
-8.901970826387319539e+04
-8.892027387810184155e+04
-8.895517790051361953e+04
-8.907728862021669920e+04
-8.901611556097019638e+04
-8.901750416065503669e+04
-8.896014924047846580e+04
-8.886807733868730429e+04
-8.891222812072488887e+04
-8.900993776706805511e+04
-8.898990707066365576e+04
-8.899711541150334233e+04
-8.904064519492957334e+04
-8.901674072612052260e+04
-8.893234857011196436e+04
-8.892217409382636833e+04
-8.895122754735774652e+04
-8.901616032680393255e+04
-8.899121451155657996e+04
-8.896556931560205703e+04
-8.903399639024269709e+04
-8.904962925383546099e+04
-8.893185888287164562e+04
-8.894276076698132965e+04
-8.894556073999479122e+04
-8.892054803539208660e+04
-8.888950351288692036e+04
-8.894880352287666756e+04
-8.894985978981634253e+04
-8.899228833146528632e+04
-8.896798111665787292e+04
-8.897133664735592902e+04
-8.901272309442496044e+04
-8.899136023509185179e+04
-8.900030223315600597e+04
-8.899097769803469419e+04
-8.898978761418517388e+04
-8.893900094627198996e+04
-8.895905803282497800e+04
-8.896565928224191885e+04
-8.895658053953008493e+04
-8.897501185511368385e+04
-8.900621262003402808e+04
-8.903726163400933729e+04
-8.897141190886258846e+04
-8.899120999537120224e+04
-8.900387886934919516e+04
-8.898758472807551152e+04
-8.894776051187085977e+04
-8.895013174260675441e+04
-8.900099462537595537e+04
-8.895379675722222601e+04
-8.894188373946858337e+04
-8.892982430746745376e+04
-8.897734368472696224e+04
-8.890364226976038481e+04
-8.892146487134922063e+04
-8.893031274093926186e+04
-8.893979708244216454e+04
-8.892017388859287894e+04
-8.892206130501553707e+04
-8.890226021945077810e+04
-8.891134257245036133e+04
-8.891228436772702844e+04
-8.890158948322334618e+04
-8.889140033269894775e+04
-8.889858265737933107e+04
-8.887819531550936517e+04
-8.890031113452973659e+04
-8.889518465282171383e+04
-8.890589975477081316e+04
-8.892441641231552057e+04
-8.891612058901228011e+04
-8.886740727809908276e+04
-8.885055120307732432e+04
-8.886045693300923449e+04
-8.884695286433352157e+04
-8.886202274089725688e+04
-8.891664417150466761e+04
-8.890494073388907418e+04
-8.890375354789715493e+04
-8.890835889981541550e+04
-8.891244109573672176e+04
-8.886656333466048818e+04
-8.890903399194103258e+04
-8.892326776733191218e+04
-8.890123952359515533e+04
-8.892019399291150330e+04
-8.890663799666283012e+04
-8.891514142697480565e+04
-8.884254426384028920e+04
-8.886538858849210374e+04
-8.885389420667832019e+04
-8.886736274566105567e+04
-8.886641483222208626e+04
-8.890552086462064472e+04
-8.888744197707371495e+04
-8.884081510589063691e+04
-8.888606361119063513e+04
-8.882511962205269083e+04
-8.884700137141742744e+04
-8.884282678821196896e+04
-8.886946350601728773e+04
-8.886928904891060665e+04
-8.886508154148534231e+04
-8.886268952472652018e+04
-8.887084727378110983e+04
-8.890722743362975598e+04
-8.888911947546669398e+04
-8.890651294824737124e+04
-8.889414772095190710e+04
-8.894735355904606695e+04
-8.893492937154691026e+04
-8.888218571740381594e+04
-8.894973443355425843e+04
-8.893150123965187231e+04
-8.889430128188650997e+04
-8.889191768882123870e+04
-8.893738867806084454e+04
-8.894915908451113501e+04
-8.897541860275741783e+04
-8.892757548915343068e+04
-8.893632184230170969e+04
-8.898105848067326588e+04
-8.888855945684433391e+04
-8.887763663552538492e+04
-8.894421263627961162e+04
-8.894380050655994273e+04
-8.887728041382240190e+04
-8.890536102235318685e+04
-8.892390506179766089e+04
-8.891788573740946595e+04
-8.890212443657210679e+04
-8.892459134018316399e+04
-8.889200722062644491e+04
-8.887900422791835445e+04
-8.883587854889454320e+04
-8.881976513987206272e+04
-8.882814391565347614e+04
-8.887680634682107484e+04
-8.882893630393277272e+04
-8.881645956021494931e+04
-8.883564125923374377e+04
-8.883248218711116351e+04
-8.882289990363076504e+04
-8.883002264505950734e+04
-8.885076847363222623e+04
-8.884524992004617525e+04
-8.879442776186284027e+04
-8.875498727835249156e+04
-8.877959430116350995e+04
-8.881488322084487299e+04
-8.878611518879572395e+04
-8.882403283492229821e+04
-8.883880181395279942e+04
-8.881387928852565528e+04
-8.876436308237489720e+04
-8.883051508713485964e+04
-8.883872083680912328e+04
-8.882810508997165016e+04
-8.886581957757477358e+04
-8.886391237506753532e+04
-8.878751793282054132e+04
-8.875509781137792743e+04
-8.876673794062742672e+04
-8.877204926246620016e+04
-8.879340640358056407e+04
-8.884921256313855702e+04
-8.885173322780345916e+04
-8.888316993348243705e+04
-8.880208756475674454e+04
-8.878737208322260994e+04
-8.884245833077158022e+04
-8.886433292641972366e+04
-8.884098858509211277e+04
-8.887476798876258545e+04
-8.890507437482142996e+04
-8.882871987204467587e+04
-8.889494246863773151e+04
-8.888273366633936530e+04
-8.891783679472166114e+04
-8.892939802906096156e+04
-8.879338730654044775e+04
-8.883073366934295336e+04
-8.888229202324044309e+04
-8.896008918606526277e+04
-8.894925896335086145e+04
-8.926859996918345860e+04
-8.908351069396454841e+04
-8.901499581298750127e+04
-8.894688674973660090e+04
-8.895594970152307360e+04
-8.883134918121440569e+04
-8.885912251636780275e+04
-8.892620667190790118e+04
-8.884585349993155978e+04
-8.879939032527356176e+04
-8.875917965190495306e+04
-8.888374633489530243e+04
-8.885897437472177262e+04
-8.888068910706441966e+04
-8.892252346859061799e+04
-8.883508795193531842e+04
-8.884512647491859389e+04
-8.880953332371074066e+04
-8.884359858020326647e+04
-8.883609533699128951e+04
-8.896900571235532698e+04
-8.884839384228858398e+04
-8.884100418279175938e+04
-8.889951840075501241e+04
-8.885269249363498238e+04
-8.883607114194717724e+04
-8.887066816240895423e+04
-8.891712079978182737e+04
-8.884416060164180817e+04
-8.887589228593115695e+04
-8.885798098669895262e+04
-8.888177528487393283e+04
-8.890058587001281558e+04
-8.891319691420851450e+04
-8.895124842799617909e+04
-8.890686419474070135e+04
-8.893081581063232443e+04
-8.889030447789665777e+04
-8.887952606556758110e+04
-8.890625957697418926e+04
-8.897523743239874602e+04
-8.896167636189269251e+04
-8.893110945326874207e+04
-8.895184206771967001e+04
-8.888576132158580003e+04
-8.889377544639310509e+04
-8.889671290534158470e+04
-8.897201287211450108e+04
-8.895842919281030481e+04
-8.893334099083418550e+04
-8.894100384251173818e+04
-8.890656331824678637e+04
-8.886663486656561145e+04
-8.888027996800652181e+04
-8.891243030850910873e+04
-8.883578058975338354e+04
-8.885272339130242472e+04
-8.884239432521656272e+04
-8.883402397639620176e+04
-8.881397861128923250e+04
-8.883452626568598498e+04
-8.882086804934882093e+04
-8.882053700811164163e+04
-8.877963530625097337e+04
-8.882456240476077073e+04
-8.882613846014805313e+04
-8.885812080738389341e+04
-8.882803680890573014e+04
-8.882098879681697872e+04
-8.878307376695003768e+04
-8.881396122705990274e+04
-8.877893760639415996e+04
-8.879572758413407428e+04
-8.883872418041585479e+04
-8.886097520964592695e+04
-8.880014807539158210e+04
-8.877809792089146504e+04
-8.880559929697912594e+04
-8.879993399071668682e+04
-8.874765712823068316e+04
-8.879739689012916642e+04
-8.884844275262198062e+04
-8.881102892556860752e+04
-8.879538814423164877e+04
-8.879886779762929655e+04
-8.879767862146787229e+04
-8.878529935711568396e+04
-8.880647918927339197e+04
-8.878741232270593173e+04
-8.880293378766615933e+04
-8.881513431775593199e+04
-8.880004234932418331e+04
-8.878814125514493207e+04
-8.879836645202439104e+04
-8.882959053466799378e+04
-8.878649364715941192e+04
-8.879379034661284823e+04
-8.878081243730547430e+04
-8.877107917273025669e+04
-8.878518492671372951e+04
-8.880210545680664654e+04
-8.879863116467218788e+04
-8.879965948513003241e+04
-8.879350318115801201e+04
-8.878082053917367011e+04
-8.873936924580311461e+04
-8.873588467553249211e+04
-8.876609497205252410e+04
-8.882606983475665038e+04
-8.870712347286571458e+04
-8.877703381227250793e+04
-8.877233697934779048e+04
-8.876385665968083777e+04
-8.875403226728399750e+04
-8.880541326999879675e+04
-8.883823364937854058e+04
-8.884630306013414520e+04
-8.880595527761965059e+04
-8.878689141407801071e+04
-8.889392653321426769e+04
-8.883163137998824823e+04
-8.888935309980424063e+04
-8.892682283416339487e+04
-8.875913226837939874e+04
-8.887289793614869996e+04
-8.886946659511601320e+04
-8.889057175135848229e+04
-8.899045216840949433e+04
-8.927897683781691012e+04
-8.900878187269960472e+04
-8.911434849212750851e+04
-8.905479048801923636e+04
-8.894256488567079941e+04
-8.889016544993488060e+04
-8.898563926370229456e+04
-8.891648186223240918e+04
-8.888816960042476421e+04
-8.890530161861248780e+04
-8.885843033219454810e+04
-8.887324235559307272e+04
-8.886355955452626222e+04
-8.891488986138056498e+04
-8.892711829289890011e+04
-8.886363874724693596e+04
-8.892195364305507974e+04
-8.892468349918634340e+04
-8.893647650012071244e+04
-8.893407947430219792e+04
-8.895857694479178463e+04
-8.890164654650173907e+04
-8.891868275979814644e+04
-8.891400660618129768e+04
-8.891245440226266510e+04
-8.890110224183854007e+04
-8.890754710267459450e+04
-8.896018202317086980e+04
-8.892432623411114037e+04
-8.892989185584291408e+04
-8.900282892027219350e+04
-8.899186011554699508e+04
-8.887826870889100246e+04
-8.891504237360075058e+04
-8.892542942810237582e+04
-8.889380243797723961e+04
-8.890385965612992004e+04
-8.896952680810070888e+04
-8.897074484577393741e+04
-8.894233038564184972e+04
-8.896481903623434482e+04
-8.896332579668176186e+04
-8.900174156135416706e+04
-8.902368962934888259e+04
-8.904405649881005229e+04
-8.897959155591094168e+04
-8.900646017999874311e+04
-8.897811141264264006e+04
-8.891941383498272626e+04
-8.895303602892401977e+04
-8.900296225091152883e+04
-8.899622770998625492e+04
-8.899980098323410493e+04
-8.904582291125995107e+04
-8.902024745203807834e+04
-8.900084536649311485e+04
-8.900270915193160181e+04
-8.900535459390167671e+04
-8.901532587653226801e+04
-8.899092088638784480e+04
-8.904510529617426801e+04
-8.906353898109338479e+04
-8.906518644289145595e+04
-8.905419461831175431e+04
-8.909541338290025305e+04
-8.904821017893041426e+04
-8.899812323562894017e+04
-8.899496250223202514e+04
-8.902228025125288696e+04
-8.904494094698561821e+04
-8.904748584062872396e+04
-8.907314114949283248e+04
-8.909443969781917986e+04
-8.910617937143116433e+04
-8.905508358549002151e+04
-8.903224666832247749e+04
-8.906258652625879040e+04
-8.908357649474994105e+04
-8.902097982029206469e+04
-8.902538930305484973e+04
-8.906709384311854956e+04
-8.907980824550811667e+04
-8.902777372779454163e+04
-8.906219974255205307e+04
-8.906507394777421723e+04
-8.911090573695382045e+04
-8.904929982642672257e+04
-8.908309149304452876e+04
-8.908754979576650658e+04
-8.913541031044044939e+04
-8.906987986548354093e+04
-8.908374015135399532e+04
-8.909050279380193388e+04
-8.908858243988640606e+04
-8.909309840722520312e+04
-8.908592130181613902e+04
-8.911921098724618787e+04
-8.912231326704612002e+04
-8.914718474896086263e+04
-8.910146202087048732e+04
-8.910744887758886034e+04
-8.915331625750471721e+04
-8.914132423934843973e+04
-8.912325592258071993e+04
-8.911680995291336149e+04
-8.916535536415828392e+04
-8.908313036919206206e+04
-8.909020198596577393e+04
-8.918068874547201267e+04
-8.917920402943601948e+04
-8.913335955759712670e+04
-8.913509505668062775e+04
-8.915163719789691095e+04
-8.907058206508986768e+04
-8.911535015124404163e+04
-8.912012683560675941e+04
-8.917807221818859398e+04
-8.918328389654462808e+04
-8.914261586158658611e+04
-8.917914795870576927e+04
-8.921825556906123529e+04
-8.919802794689519214e+04
-8.920732793459332606e+04
-8.912317507127510908e+04
-8.914120686134802236e+04
-8.922324934274739644e+04
-8.928315053739596624e+04
-8.929242642038180202e+04
-8.961457346783045796e+04
-8.949524461546768725e+04
-8.931358109219194739e+04
-8.924286662214084936e+04
-8.925111562755623891e+04
-8.916181367017669254e+04
-8.920004271269365563e+04
-8.928902414942160249e+04
-8.932639536716027942e+04
-8.928218801507740864e+04
-8.918512649164249888e+04
-8.924371994981204625e+04
-8.927594292252078594e+04
-8.926571792581614864e+04
-8.930037264750315808e+04
-8.925248242637122166e+04
-8.927691647678292065e+04
-8.923889628191602242e+04
-8.922528424874375924e+04
-8.926381629937997786e+04
-8.931333721515882644e+04
-8.923875777645131166e+04
-8.926424573231035902e+04
-8.928565408552346344e+04
-8.923817231358810386e+04
-8.927275643546454376e+04
-8.932125991414414602e+04
-8.930645251529999950e+04
-8.929471709061024012e+04
-8.930142264602337673e+04
-8.932896529252709297e+04
-8.928389737499335024e+04
-8.926146359648602083e+04
-8.928944639221910620e+04
-8.928841137105019880e+04
-8.929540610236307839e+04
-8.932043891200276266e+04
-8.933464601103463792e+04
-8.933383535732130986e+04
-8.937309748110621877e+04
-8.929593506074127799e+04
-8.929589267402212135e+04
-8.934688466389382666e+04
-8.931127128853752220e+04
-8.928573785595947993e+04
-8.933758489086841291e+04
-8.933622296158205427e+04
-8.928831472180076526e+04
-8.930601989572749881e+04
-8.931016770966138574e+04
-8.931691756771136716e+04
-8.934510467350170074e+04
-8.933192044923735375e+04
-8.933964277207919804e+04
-8.933252932486589998e+04
-8.930222127201077819e+04
-8.933737570879119448e+04
-8.934126328034467588e+04
-8.933075297098039300e+04
-8.934869002003750938e+04
-8.935798755882585829e+04
-8.924920102974814654e+04
-8.930070565003070806e+04
-8.930748840089562873e+04
-8.931335980086454947e+04
-8.934954700979197514e+04
-8.936698987345898058e+04
-8.933618800284022291e+04
-8.934085063395691395e+04
-8.932209305526374374e+04
-8.934750693322019652e+04
-8.941120549862559710e+04
-8.937138675312619307e+04
-8.940895444969141681e+04
-8.943275888868184120e+04
-8.935235172461523325e+04
-8.935629446742084110e+04
-8.942613318197392800e+04
-8.938542041454231367e+04
-8.938058799458076828e+04
-8.941085106783590163e+04
-8.942197891675817664e+04
-8.940863638999672548e+04
-8.942338556498884282e+04
-8.943868683680391405e+04
-8.949885484815193922e+04
-8.945859366541169584e+04
-8.944302018276664603e+04
-8.944338637007614307e+04
-8.945760332816500159e+04
-8.944761915839486755e+04
-8.945689901471933990e+04
-8.948915249185425637e+04
-8.947467643472636701e+04
-8.949941122535604518e+04
-8.949432698198549042e+04
-8.952601015461124189e+04
-8.950273483113733528e+04
-8.954893380771407101e+04
-8.949488683612861496e+04
-8.945157072240645357e+04
-8.944772514336400491e+04
-8.946342488217802020e+04
-8.948140740074710629e+04
-8.948242940500346594e+04
-8.951220900131460803e+04
-8.950373568349026027e+04
-8.950319350291138107e+04
-8.948707921253905806e+04
-8.950144703728015884e+04
-8.956635128393603372e+04
-8.956808832311638980e+04
-8.954597114133244031e+04
-8.949873299802056863e+04
-8.957037884438943001e+04
-8.955122989060131658e+04
-8.953387379423585662e+04
-8.953885284309370036e+04
-8.955711057515219727e+04
-8.953482271840141038e+04
-8.948791625487184501e+04
-8.954857101429233444e+04
-8.958812790575419785e+04
-8.959660545663336234e+04
-8.956019373252430523e+04
-8.951473992618634657e+04
-8.952960883930725686e+04
-8.961491378230934788e+04
-8.967823388163516938e+04
-8.970866406514296250e+04
-8.986441973480863089e+04
-8.979918951437193027e+04
-8.961248557518691814e+04
-8.959716263426464866e+04
-8.955774297515481885e+04
-8.952914429578460113e+04
-8.953866212356611504e+04
-8.961123351002125128e+04
-8.957186435609286127e+04
-8.958222038972239534e+04
-8.954748814193658473e+04
-8.955415424637818069e+04
-8.957535378205741290e+04
-8.957670983610422991e+04
-8.966340330719355552e+04
-8.957819170063157799e+04
-8.958513452427268203e+04
-8.959002535787757370e+04
-8.955858752709056716e+04
-8.951431997245849925e+04
-8.957661068594713288e+04
-8.959544130259260419e+04
-8.957563330009361380e+04
-8.960338764605790493e+04
-8.955058893126749899e+04
-8.958867131031997269e+04
-8.956922438261196658e+04
-8.957289838815058465e+04
-8.961208955197290925e+04
-8.959939844725142757e+04
-8.961211787914753950e+04
-8.962078564296143304e+04
-8.960307847330995719e+04
-8.959672507687278267e+04
-8.965532668638470932e+04
-8.964007541553379269e+04
-8.962901252275954175e+04
-8.965584095736555173e+04
-8.962980101978710445e+04
-8.966680312514871184e+04
-8.963015286548975564e+04
-8.963156127847800963e+04
-8.964169049040917889e+04
-8.965579455858151778e+04
-8.963825644663778075e+04
-8.967594086824775150e+04
-8.970853866873131483e+04
-8.969612078926376125e+04
-8.967031860018352745e+04
-8.966756019647074572e+04
-8.965169358701366582e+04
-8.962219583258390776e+04
-8.962899079312538379e+04
-8.967656301733398868e+04
-8.965362823171679338e+04
-8.967568738512857817e+04
-8.969961232454686251e+04
-8.967612993651203578e+04
-8.967324558044242440e+04
-8.963715030050848145e+04
-8.965183697835865314e+04
-8.967117217498432728e+04
-8.968048902126110625e+04
-8.963544844496673613e+04
-8.968645978889103571e+04
-8.967266470657335594e+04
-8.958582094447537384e+04
-8.960965155306458473e+04
-8.962646451175062975e+04
-8.962877762320439797e+04
-8.962366424930034555e+04
-8.969294268191979791e+04
-8.965278031346204807e+04
-8.965431643601712130e+04
-8.972699177995946957e+04
-8.966511004573226091e+04
-8.962548112469376065e+04
-8.965659725913408329e+04
-8.967995080239445087e+04
-8.955750826860108646e+04
-8.962906080809787090e+04
-8.971121555824849929e+04
-8.966959115177259082e+04
-8.962972238862373342e+04
-8.964964141005955753e+04
-8.969187387998351187e+04
-8.966075659464193450e+04
-8.968811946229428577e+04
-8.972180288898246363e+04
-8.973632339001045329e+04
-8.971453715248190565e+04
-8.961792936785868369e+04
-8.964401370508251421e+04
-8.966930519699434808e+04
-8.974544747718931467e+04
-8.969179315141253755e+04
-8.973312748137042217e+04
-8.978670390883520304e+04
-8.973141919910801516e+04
-8.968662280127043778e+04
-8.970858094678328780e+04
-8.979867159492758219e+04
-8.966293253540147271e+04
-8.968780511916743126e+04
-8.969494348145110416e+04
-8.972091282110201428e+04
-8.974852537076886802e+04
-8.976669768164533889e+04
-8.976881225751819147e+04
-8.971773806965495169e+04
-8.975806124506266497e+04
-8.975661001903600118e+04
-8.980415226933429949e+04
-8.980933515601341787e+04
-8.985714535445222282e+04
-8.983539171462884406e+04
-8.967303504392906325e+04
-8.977084754609491210e+04
-8.981086491865625430e+04
-8.984699417851192993e+04
-8.983078506999230012e+04
-8.977202638685554848e+04
-8.975603811473798123e+04
-8.980885244970594067e+04
-8.987669365391130850e+04
-8.990878422194531595e+04
-9.025030623979736993e+04
-9.011726249045362056e+04
-8.994583441132560256e+04
-8.981314650216657901e+04
-8.981397825804281456e+04
-8.973624579993396765e+04
-8.978728568555029051e+04
-8.987148941239679698e+04
-8.990689213584273239e+04
-8.989343406779256475e+04
-8.979058173332517617e+04
-8.980746805536013562e+04
-8.986800597709733120e+04
-8.990166435015878233e+04
-8.990015368506041705e+04
-8.986034457970531366e+04
-8.987099976469409012e+04
-8.986032268951687729e+04
-8.985991225284595566e+04
-8.986748429463974026e+04
-8.987808580270367383e+04
-8.987741467728553107e+04
-8.984875065453545540e+04
-8.976035500605574634e+04
-8.979139566328134970e+04
-8.982320784361696860e+04
-8.982433081256564765e+04
-8.974926905928763153e+04
-8.982971108096845273e+04
-8.981725715597662202e+04
-8.981203299754964246e+04
-8.979621475463884417e+04
-8.976176637120923260e+04
-8.984492380323960970e+04
-8.977688113235331548e+04
-8.985162877405111794e+04
-8.986943540555168875e+04
-9.004305642951031041e+04
-8.989370554245733365e+04
-8.987930345980872517e+04
-8.984183892900965293e+04
-8.976251786220382201e+04
-8.974185783955978695e+04
-8.980116910121827095e+04
-8.988438467871019384e+04
-8.984813596874693758e+04
-8.984328310023370432e+04
-8.976988542621178203e+04
-8.978125883908012474e+04
-8.985121297634899383e+04
-8.982074935680959607e+04
-8.989705928587797098e+04
-8.989739967055803572e+04
-8.976363404186375556e+04
-8.979700262321783521e+04
-8.978873680407441861e+04
-8.988330038426068495e+04
-8.992767349442538398e+04
-9.022123096873374016e+04
-9.000441495815274538e+04
-9.019024868677604536e+04
-9.034395831334007380e+04
-9.033200763709776220e+04
-9.027077455215604277e+04
-9.036431199806912628e+04
-9.034040415212904918e+04
-8.988029191401625576e+04
-8.991950513083014812e+04
-8.981931367768110067e+04
-8.991039481134228117e+04
-8.980745787629946426e+04
-8.992455740306270309e+04
-8.992446860726163140e+04
-8.984724935640848707e+04
-8.985875006487296196e+04
-8.981325302520125115e+04
-8.995311359339403862e+04
-8.988197263889882015e+04
-8.995324744321708567e+04
-8.984471276395002496e+04
-8.984633603111938282e+04
-8.989367957585463591e+04
-8.985526508877545712e+04
-8.992226936746157298e+04
-8.991512044360883010e+04
-8.996551972220155585e+04
-8.983601168998501089e+04
-8.991455730669098557e+04
-8.986512493699001789e+04
-8.986325364529463695e+04
-8.989603069822289399e+04
-8.989402257612209360e+04
-8.989277177768611000e+04
-8.984160136336031428e+04
-8.989277519231307087e+04
-8.989254657303434215e+04
-8.992047604831356148e+04
-8.990800696238236560e+04
-8.991147387532540597e+04
-8.996668521586075076e+04
-8.993579186837379530e+04
-8.991967601881815062e+04
-8.989546684324163652e+04
-8.998421082274691435e+04
-8.991734124364324089e+04
-8.986395645256806165e+04
-8.991059178011183394e+04
-8.993047201880614739e+04
-8.993313542901459732e+04
-8.989432125966995955e+04
-8.996197091547551099e+04
-8.993445956696194480e+04
-8.990979687350343738e+04
-8.990156234433701320e+04
-8.997496446572880086e+04
-8.992490011057189258e+04
-8.989849353974440601e+04
-8.994048972505521670e+04
-8.989572523279022425e+04
-8.990915793271426810e+04
-8.996218075751727156e+04
-9.001387929534330033e+04
-9.005509440705769521e+04
-8.991338501255035226e+04
-8.985527128243037441e+04
-9.002079064500851382e+04
-9.002323862071309122e+04
-8.997396915062572225e+04
-9.024551231484882010e+04
-9.029973456761076523e+04
-9.003089484512548370e+04
-9.000699324538809014e+04
-8.997620529158045247e+04
-8.992619999120090506e+04
-8.993912529767122760e+04
-8.997492788913271215e+04
-8.998229348720554844e+04
-9.000015069447377755e+04
-8.993067088411397708e+04
-8.987142757314383925e+04
-8.995547203681488463e+04
-8.994456706922486774e+04
-8.995661013318379992e+04
-8.994931579733626859e+04
-8.995811035842941783e+04
-8.995826266637269873e+04
-8.992414049702188640e+04
-8.990621916169373435e+04
-8.991564954798344115e+04
-8.996184970297582913e+04
-8.992531288989378663e+04
-8.994814989354464342e+04
-8.997414340582305158e+04
-8.994299933775806858e+04
-8.989425620151555631e+04
-8.990571278482281195e+04
-8.993474351826836937e+04
-8.992898206388387189e+04
-8.995646781604617718e+04
-8.995638148197087867e+04
-8.997091606009719544e+04
-8.995986548119581130e+04
-8.990473574661614839e+04
-8.997062340788317670e+04
-9.001202443252084777e+04
-8.997922962783330877e+04
-8.995730821269527951e+04
-9.002178067373429076e+04
-8.995480730950822181e+04
-8.996895362140590441e+04
-8.999682989299474866e+04
-9.001436091814022802e+04
-9.002115672353391710e+04
-9.002583339013962541e+04
-9.003102659877960104e+04
-9.005449922203819733e+04
-9.005554401307705848e+04
-9.004333402851487335e+04
-9.010471521861800284e+04
-9.004132214545625902e+04
-9.001066466893661709e+04
-9.003613453673302138e+04
-9.002963416148706165e+04
-9.000953489400583203e+04
-9.004847720327055140e+04
-9.008271318239544053e+04
-9.007617070774227614e+04
-9.004445797854948614e+04
-9.002954820198938251e+04
-9.008584689524289570e+04
-9.008046667680692917e+04
-9.004063204544698237e+04
-9.009809872246960003e+04
-9.006873187334075919e+04
-9.003738851774495561e+04
-9.000335490038829448e+04
-9.002253042385680601e+04
-9.004302909715911665e+04
-9.006007939362074831e+04
-9.002605584550071217e+04
-9.003954848838769249e+04
-9.005447610091515526e+04
-9.003791143016227579e+04
-9.004385134777445637e+04
-9.003120433920080541e+04
-9.006563100106210914e+04
-9.010314576445349667e+04
-9.001709922643996833e+04
-9.004077331921023142e+04
-9.010292231985389662e+04
-9.009482166145346127e+04
-8.998773797795691644e+04
-8.997469029675314960e+04
-9.006115147303622507e+04
-9.005889457192544069e+04
-9.004038813631520316e+04
-9.010975132531450072e+04
-9.026671014673475293e+04
-9.010989039776727441e+04
-9.009801937896446907e+04
-9.007723583446114208e+04
-9.008166166379413335e+04
-9.002165451526573452e+04
-9.004614111122484610e+04
-9.004288485273356491e+04
-9.005378642483647855e+04
-9.004420902868856501e+04
-9.000670210680497985e+04
-9.005344082539655210e+04
-9.004698919644957641e+04
-9.008633145778920152e+04
-9.005961094486451475e+04
-9.006061062239651801e+04
-9.003965202393331856e+04
-9.001575509632921603e+04
-9.003767943399092474e+04
-9.006477216125329142e+04
-9.005652787166586495e+04
-9.005887775317404885e+04
-9.008552131780632772e+04
-9.000612085081046098e+04
-9.000989050476801640e+04
-9.003457421264756704e+04
-9.004495256398837955e+04
-9.008197700748665375e+04
-9.008896432186517632e+04
-9.008136419697996462e+04
-9.008226033910075785e+04
-9.010803257252223557e+04
-9.008565059317680425e+04
-9.012878072801657254e+04
-9.006763948379820795e+04
-9.003612523376072932e+04
-9.012155292422861385e+04
-9.015496645326484577e+04
-9.017958430539553228e+04
-9.030841412570195098e+04
-9.038071552360209171e+04
-9.017434504118435143e+04
-9.012093890108454798e+04
-9.009850089430654771e+04
-9.004784010089606454e+04
-9.002855342491538613e+04
-9.008679000940515834e+04
-9.010444825728519936e+04
-9.009491823588279658e+04
-9.007829720923633431e+04
-9.005171808599091310e+04
-9.011288646277214866e+04
-9.014117967667641642e+04
-9.016639642861232278e+04
-9.011529269249254139e+04
-9.009378291726023599e+04
-9.012068730398511980e+04
-9.010916709130696836e+04
-9.006551183937600581e+04
-9.012234080869381432e+04
-9.011938308448527823e+04
-9.010861345154189621e+04
-9.009313025586218282e+04
-9.012054792661212559e+04
-9.014851067050950951e+04
-9.016597926292839111e+04
-9.012885264804361213e+04
-9.012196983424262726e+04
-9.012443020052199427e+04
-9.011251316714321729e+04
-9.016523959359277796e+04
-9.012127663222233241e+04
-9.014633552839774347e+04
-9.010771228409731702e+04
-9.008648308829787129e+04
-9.009770368503137433e+04
-9.013512829132693878e+04
-9.016416244335511874e+04
-9.018217579801681859e+04
-9.016006570558683597e+04
-9.009285109153015947e+04
-9.018489870978079853e+04
-9.019477869827291579e+04
-9.019791579666301550e+04
-9.016023019883513916e+04
-9.008982028109769453e+04
-9.011643123411714623e+04
-9.008516879980207887e+04
-9.017693403880341793e+04
-9.019494608157860057e+04
-9.030150212687643943e+04
-9.019273240179569984e+04
-9.013991817345806339e+04
-9.024291492244829715e+04
-9.035894043243998021e+04
-9.036017361714942672e+04
-9.013658315745301661e+04
-9.020518057419039542e+04
-9.010696655728390033e+04
-9.021865480648129596e+04
-9.029905274137575179e+04
-9.050295844986088923e+04
-9.054596942471797229e+04
-9.043434932075520919e+04
-9.055183336980901367e+04
-9.048117212743950950e+04
-9.078265376360857044e+04
-9.080327265759778675e+04
-9.041280693654020433e+04
-9.000111393797212804e+04
-9.028171169416025805e+04
-9.059368943624616077e+04
-9.073180817853903864e+04
-9.123220760907435033e+04
-9.102963510702869098e+04
-9.067743505184125388e+04
-9.017284309941418178e+04
-9.028553287330297462e+04
-9.107971489256419591e+04
-9.155096511046297383e+04
-9.142397153343090031e+04
-9.115814182184931997e+04
-9.127098201765946578e+04
-9.133051939219517226e+04
-9.145860636344252271e+04
-9.240958856761596689e+04
-9.285967563709174283e+04
-9.175163566214335151e+04
-9.043415027164835192e+04
-9.167745143529876077e+04
-9.132889159156825917e+04
-9.122545117195080093e+04
-9.290928936420541140e+04
-9.310857211038697278e+04
-9.180128156233156915e+04
-9.195836910874729801e+04
-9.270705132168065757e+04
-9.223374209128566144e+04
-9.303419478607429483e+04
-9.264035389385576127e+04
-9.190046274740961962e+04
-9.156892001445493952e+04
-9.164161730880806863e+04
-9.204553891755211225e+04
-9.177547339158186514e+04
-9.205520461036740744e+04
-9.216368921348094591e+04
-9.177023144642633270e+04
-9.073440754976060998e+04
-9.208569982362660812e+04
-9.299719608092601993e+04
-9.208244309817237081e+04
-9.183864021771952685e+04
-9.253307919687374670e+04
-9.213289111831120681e+04
-9.119933874982087582e+04
-9.142943061782557925e+04
-9.227118206169216137e+04
-9.195956101769040106e+04
-9.199922596121121023e+04
-9.219522166013576498e+04
-9.285027371870810748e+04
-9.204818973848466703e+04
-9.149557239129973459e+04
-9.187408884855793440e+04
-9.224726431571500143e+04
-9.226104388230585027e+04
-9.268293762975113350e+04
-9.342409526756269042e+04
-9.248593249017775815e+04
-9.178854841977641627e+04
-9.126731109843974991e+04
-9.141082575961807743e+04
-9.179064940341860347e+04
-9.164145904980882187e+04
-9.203887267412792426e+04
-9.265698824706673622e+04
-9.261098287811048795e+04
-9.201188187479846238e+04
-9.225404583131457912e+04
-9.236698050186062756e+04
-9.178827793858890072e+04
-9.158672930867288960e+04
-9.145409638682770310e+04
-9.196965449995480594e+04
-9.167694096322263067e+04
-9.191326731764906435e+04
-9.185956796383492474e+04
-9.161410470341324981e+04
-9.198886334371809789e+04
-9.220770491530338768e+04
-9.167368990944996767e+04
-9.162137297137704445e+04
-9.194885779344140610e+04
-9.105651983454990841e+04
-9.120445172836817801e+04
-9.171803044535001391e+04
-9.156180811384115077e+04
-9.196264412053400883e+04
-9.205501594877963362e+04
-9.132126729723579774e+04
-9.130344927320607530e+04
-9.164957942697071121e+04
-9.128796775735288975e+04
-9.104250513462924573e+04
-9.121134244978075731e+04
-9.115530403745830699e+04
-9.102657334064495808e+04
-9.091886394907288195e+04
-9.121807659353061172e+04
-9.148244472847771249e+04
-9.123115068790366058e+04
-9.132576663481658034e+04
-9.111294098944081634e+04
-9.092054356505315809e+04
-9.113516191809000156e+04
-9.120080238525866298e+04
-9.085536551175684144e+04
-9.085763340996044280e+04
-9.124966322093601048e+04
-9.086604819501651218e+04
-9.089225164077026420e+04
-9.094570033224970393e+04
-9.114193955747183645e+04
-9.087879870599582500e+04
-9.070304237767592713e+04
-9.058950860833220941e+04
-9.066651382694288623e+04
-9.076546091056503064e+04
-9.060705467026734550e+04
-9.071901891333432286e+04
-9.089384830286944634e+04
-9.088335659149456478e+04
-9.072035054761613719e+04
-9.071301998434153211e+04
-9.085089341786742443e+04
-9.076775017816200852e+04
-9.071860224595021282e+04
-9.071706187466483971e+04
-9.081798131430477952e+04
-9.070924362463735451e+04
-9.052693907962317462e+04
-9.052565908734466939e+04
-9.044044467848024215e+04
-9.039065727215826337e+04
-9.040918017649755348e+04
-9.052597570672493021e+04
-9.048770938874979038e+04
-9.043898334536992479e+04
-9.042060056835344585e+04
-9.024336650142561120e+04
-9.022648524127394194e+04
-9.022309193785324169e+04
-9.022792766578629380e+04
-9.031739296904261573e+04
-9.044135514991216769e+04
-9.032531131088701659e+04
-9.028267101290804567e+04
-9.031351555871158780e+04
-8.999181882370953099e+04
-8.988231308575926232e+04
-8.991325595611031167e+04
-8.994600399754407408e+04
-8.987388254917295126e+04
-8.993643908538600954e+04
-8.999294972347031580e+04
-8.996837962812835758e+04
-8.970888430818630150e+04
-8.980340606416907394e+04
-8.991279314985816018e+04
-8.977365185971527535e+04
-8.976868938925139082e+04
-9.003414260183412989e+04
-8.981960713683941867e+04
-8.973227190968781360e+04
-8.964621496266058239e+04
-8.960780062639186508e+04
-8.946071388250902237e+04
-8.950964955005266529e+04
-8.954036672665431979e+04
-8.971593222748310654e+04
-8.972954168386323727e+04
-8.968809853899684094e+04
-8.959746715169282106e+04
-8.953061276487199939e+04
-8.951956507166037045e+04
-8.934444152003484487e+04
-8.942503129595026257e+04
-8.961201728931133403e+04
-8.962653757668804610e+04
-8.960785654746250657e+04
-8.958544085643310973e+04
-8.949459735732493573e+04
-8.961873887093887606e+04
-8.954310932618759398e+04
-8.942036493274087843e+04
-8.987094816147300298e+04
-8.998254743037704611e+04
-8.956823913387588982e+04
-8.960395681576753850e+04
-8.953987442115531303e+04
-8.934440957745432388e+04
-8.930346743450187205e+04
-8.944964720203970501e+04
-8.948850893159778207e+04
-8.963392235596994578e+04
-8.932524500547506614e+04
-8.925496379085847002e+04
-8.933471531888909522e+04
-8.933459556203105603e+04
-8.942155142374946445e+04
-8.945052844016793824e+04
-8.943687640472452040e+04
-8.935338194433790341e+04
-8.933590393529487483e+04
-8.922831260724115418e+04
-8.942046248771483079e+04
-8.943327795663557481e+04
-8.950471698174215271e+04
-8.944754021106105938e+04
-8.920074619861820247e+04
-8.933614275247114711e+04
-8.940898476394251338e+04
-8.933733215757255675e+04
-8.930007611603609985e+04
-8.952732074911506788e+04
-8.929226906119832711e+04
-8.916695979871290911e+04
-8.922104079730439116e+04
-8.923765783603828459e+04
-8.929054539546604792e+04
-8.923881877941731364e+04
-8.932255233702901751e+04
-8.923990279646975978e+04
-8.928861070486923563e+04
-8.923609460971424414e+04
-8.926813088311669708e+04
-8.930063552710034128e+04
-8.928402242027936154e+04
-8.932611165232342319e+04
-8.924023286707281659e+04
-8.930250393467569666e+04
-8.918018969880323857e+04
-8.923332992560822458e+04
-8.914097778032318456e+04
-8.911280105707114853e+04
-8.912983129671266943e+04
-8.917378087040790706e+04
-8.922410307063024084e+04
-8.921303656294790562e+04
-8.925984322764525132e+04
-8.925088774619004107e+04
-8.924472279761041864e+04
-8.915250546668296738e+04
-8.909822384415041597e+04
-8.917092994241845736e+04
-8.909929891136808146e+04
-8.911405867746552394e+04
-8.912511903719346446e+04
-8.924014305934868753e+04
-8.917162971743986418e+04
-8.916663469825261564e+04
-8.916568531419675855e+04
-8.919517815106188937e+04
-8.918396234150836244e+04
-8.914810823792184237e+04
-8.919828444782146835e+04
-8.920045987540512579e+04
-8.918308568375468894e+04
-8.914146105582926248e+04
-8.917339403749065241e+04
-8.915261434875246778e+04
-8.915726382429576188e+04
-8.912683715482312255e+04
-8.913491351019425201e+04
-8.914458498111533117e+04
-8.914048050999964471e+04
-8.917016606598920771e+04
-8.924452873406418075e+04
-8.919393250355069176e+04
-8.917016032517827989e+04
-8.921962100481073139e+04
-8.915202897042504628e+04
-8.909311322876741178e+04
-8.915379421551131236e+04
-8.919507005315435526e+04
-8.912508578715633485e+04
-8.910762797769113968e+04
-8.917707811966500594e+04
-8.919174605650154990e+04
-8.916208379750675522e+04
-8.920684593141631922e+04
-8.924622113939070550e+04
-8.912701690963935107e+04
-8.910297864977394056e+04
-8.909227637698496983e+04
-8.906374944976830739e+04
-8.912496844761022658e+04
-8.920663144748855848e+04
-8.916554411547702330e+04
-8.912959112704126164e+04
-8.914642512356631050e+04
-8.915123953774887195e+04
-8.914657131408448913e+04
-8.916707436877304281e+04
-8.920425235021638218e+04
-8.919067032253489015e+04
-8.909183648965798784e+04
-8.913352993823132419e+04
-8.917733837743998447e+04
-8.919175896235954133e+04
-8.917495756473438814e+04
-8.918474691550451098e+04
-8.912808058617485221e+04
-8.909148646874543920e+04
-8.911660710099460266e+04
-8.916636236079160881e+04
-8.920290329961037787e+04
-8.909241608970373636e+04
-8.914858180579800683e+04
-8.921254146854471765e+04
-8.923547169585055963e+04
-8.926588476061903930e+04
-8.954835588941733295e+04
-8.946368817095564737e+04
-8.924123540683386091e+04
-8.918229383242661424e+04
-8.923011574076156830e+04
-8.907152274654207577e+04
-8.909910416669948609e+04
-8.921853817178207100e+04
-8.924493296029280464e+04
-8.915848924464524316e+04
-8.914825253435171908e+04
-8.916200124438045896e+04
-8.919602162960507849e+04
-8.917989777817492723e+04
-8.915218846562938415e+04
-8.913683987809547398e+04
-8.919659975779589149e+04
-8.917168259472366481e+04
-8.915386465477113961e+04
-8.922748581928896601e+04
-8.924565944331260107e+04
-8.913094603010579885e+04
-8.913029112136751064e+04
-8.917053088552299596e+04
-8.911988283056949149e+04
-8.917652279057043779e+04
-8.923664621782890754e+04
-8.922599791784596164e+04
-8.917068238486228802e+04
-8.919790285108306853e+04
-8.915669689325575018e+04
-8.911991846979159163e+04
-8.912466378876309318e+04
-8.919703431263864331e+04
-8.921944561825691198e+04
-8.918933630045295286e+04
-8.922446206923815771e+04
-8.920033927156690334e+04
-8.921271048280718969e+04
-8.917932802466033900e+04
-8.921162564940404263e+04
-8.922831567180123238e+04
-8.923948192198092875e+04
-8.916212310017141863e+04
-8.918895628627683618e+04
-8.921260493641415087e+04
-8.916930919584415096e+04
-8.920329318935018091e+04
-8.919342944410417113e+04
-8.920479539260698948e+04
-8.921481089832169528e+04
-8.921872501238112454e+04
-8.920947706942286459e+04
-8.926430334367591422e+04
-8.920532432988418441e+04
-8.915595319182444655e+04
-8.923217684069248207e+04
-8.920111717046727426e+04
-8.922415023685277265e+04
-8.927910533167139511e+04
-8.926906102907555760e+04
-8.920117234715454106e+04
-8.922479712061265309e+04
-8.918461076875944855e+04
-8.915452594997576671e+04
-8.921935146636664285e+04
-8.921106957715682802e+04
-8.916875413269488490e+04
-8.919616943252073543e+04
-8.925183573579884251e+04
-8.924023086013576540e+04
-8.921596121325124113e+04
-8.925976786396016541e+04
-8.921279656426452857e+04
-8.915618472084720270e+04
-8.914244290285951865e+04
-8.918394085455356981e+04
-8.921726900241195108e+04
-8.924162581717882131e+04
-8.924972535039676586e+04
-8.918413279233816138e+04
-8.924467394074659387e+04
-8.917673645475122612e+04
-8.916811931992463360e+04
-8.922521380963367119e+04
-8.929163557601471257e+04
-8.921408687081212702e+04
-8.921655249746242771e+04
-8.921971665269054938e+04
-8.914471577581491147e+04
-8.921837835988818551e+04
-8.920807680605998030e+04
-8.921655867509754898e+04
-8.925892475866716995e+04
-8.927583624646460521e+04
-8.918701054911430401e+04
-8.921422233644736116e+04
-8.922742710773856379e+04
-8.917737195600326231e+04
-8.921782170940776996e+04
-8.923112890892846917e+04
-8.927451949481781048e+04
-8.925493457359162858e+04
-8.926800500406196807e+04
-8.926946759817437851e+04
-8.924465581861652026e+04
-8.918116333347441105e+04
-8.924769620377224055e+04
-8.928744706777833926e+04
-8.923803710288909497e+04
-8.927872733765289013e+04
-8.928081669740669895e+04
-8.924108806683692092e+04
-8.922166431766482128e+04
-8.925804485552973347e+04
-8.923855615052278154e+04
-8.928005187737804954e+04
-8.925921354627459368e+04
-8.918283562890501344e+04
-8.923839850639947690e+04
-8.932080195846283459e+04
-8.930843652203724196e+04
-8.929437648286654439e+04
-8.930657352477448876e+04
-8.929543391292782326e+04
-8.926823043575904740e+04
-8.926887619108006766e+04
-8.931316852551751072e+04
-8.953652776652481407e+04
-8.940765893103003327e+04
-8.932016084426158341e+04
-8.937200552906357916e+04
-8.937864974423326203e+04
-8.921614620063209441e+04
-8.929053577959965332e+04
-8.934383702568126319e+04
-8.929861496679426637e+04
-8.926825333563251479e+04
-8.920270133099786472e+04
-8.929070463202931569e+04
-8.933191047974213143e+04
-8.927092591170809465e+04
-8.928934646610553318e+04
-8.932506739236899011e+04
-8.929718825248307257e+04
-8.924943591542603099e+04
-8.928381164415398962e+04
-8.929235665317894018e+04
-8.932105154305114411e+04
-8.925041254791340907e+04
-8.927136682726093568e+04
-8.931827392908047477e+04
-8.926757386351117748e+04
-8.929256717099493835e+04
-8.929474540221081406e+04
-8.928940604880877072e+04
-8.928679001788546157e+04
-8.930345824039212312e+04
-8.928278908144960587e+04
-8.934613823344383854e+04
-8.935072025004577881e+04
-8.931949213101195346e+04
-8.933345458451943705e+04
-8.934096241052359983e+04
-8.928831221079938405e+04
-8.926953135189090972e+04
-8.925938760096955230e+04
-8.928830386003461899e+04
-8.926807830414600903e+04
-8.929065032954064372e+04
-8.931834185854143288e+04
-8.935108921360963723e+04
-8.930607768755368306e+04
-8.926599679303450102e+04
-8.928895985374791780e+04
-8.933872114753960341e+04
-8.933339042560316739e+04
-8.931909930682525737e+04
-8.938429831752997416e+04
-8.938628096084210847e+04
-8.928568709174745891e+04
-8.926529611947400554e+04
-8.930198035971676291e+04
-8.935254089532680518e+04
-8.933056138911221933e+04
-8.934331256951780233e+04
-8.934519645291398047e+04
-8.938447802828834392e+04
-8.928020895062919590e+04
-8.927510011091253546e+04
-8.933928853747596440e+04
-8.936925339597440325e+04
-8.932107849127611553e+04
-8.933148643650200393e+04
-8.932288776450643491e+04
-8.931795312195725273e+04
-8.930235515191443847e+04
-8.926211828731649439e+04
-8.930942567848011095e+04
-8.935373466645085136e+04
-8.937199142240438960e+04
-8.935465053891556454e+04
-8.935986306337207498e+04
-8.936871690626736381e+04
-8.937327922275684250e+04
-8.931507667076218058e+04
-8.936058853721602645e+04
-8.944036687006357533e+04
-8.939165211048550555e+04
-8.934907673477029311e+04
-8.934243116560085036e+04
-8.936549455509155814e+04
-8.931501870351510297e+04
-8.933063121107323968e+04
-8.937242150881866110e+04
-8.939298070310629555e+04
-8.929508901248485199e+04
-8.933981171149942384e+04
-8.934715878301659541e+04
-8.931583509908668930e+04
-8.936844137266850157e+04
-8.937128596394746273e+04
-8.932041242797467567e+04
-8.937899069674624479e+04
-8.938313726528141706e+04
-8.936254417145311891e+04
-8.939281652424411732e+04
-8.938183714150718879e+04
-8.933169530536042294e+04
-8.935225558755776729e+04
-8.935350054664208437e+04
-8.942800923955901817e+04
-8.945303310550743481e+04
-8.936063880393067666e+04
-8.937848690150694165e+04
-8.935686366650926357e+04
-8.937718079077071161e+04
-8.936016761565780325e+04
-8.944915706576615048e+04
-8.943540611221751897e+04
-8.941197646339220228e+04
-8.936697737684343883e+04
-8.936885447057927377e+04
-8.942383300744442386e+04
-8.939466650530700281e+04
-8.941901317245615064e+04
-8.931383519466749567e+04
-8.935020542224049859e+04
-8.931962464345211629e+04
-8.933864163848111639e+04
-8.942653046002579504e+04
-8.932544311353795638e+04
-8.940978479977384268e+04
-8.942127828734615468e+04
-8.945426222377947124e+04
-8.942351110432168934e+04
-8.977749732982111163e+04
-8.964235188844085496e+04
-8.953965754277798987e+04
-8.956944262349809287e+04
-8.949862841664301232e+04
-8.940954820553940954e+04
-8.936928997651037935e+04
-8.947139065609849058e+04
-8.941890391118824482e+04
-8.940487943508835451e+04
-8.941563624690938741e+04
-8.945389719677701942e+04
-8.942972586206362757e+04
-8.942172455220797565e+04
-8.952859819863006123e+04
-8.929574298033953528e+04
-8.942081309450250410e+04
-8.942912158650954370e+04
-8.938874067898244539e+04
-8.940368805949136731e+04
-8.947869469905059668e+04
-8.939881531386853021e+04
-8.938678917294116400e+04
-8.949284930448628438e+04
-8.936427277117829362e+04
-8.942390706867152767e+04
-8.940841028150000784e+04
-8.941066858725259954e+04
-8.937968768421781715e+04
-8.941193232710097800e+04
-8.951030978704657173e+04
-8.947400374618929345e+04
-8.943661048746634333e+04
-8.941014734099111229e+04
-8.945557077427941840e+04
-8.945655867825789028e+04
-8.945974068895840901e+04
-8.949116624804557068e+04
-8.949375879854678351e+04
-8.954445597701957740e+04
-8.937046447245622403e+04
-8.944058284268206626e+04
-8.948128394645449589e+04
-8.948057000500458525e+04
-8.937470888877454854e+04
-8.943930769653644529e+04
-8.941922859413718106e+04
-8.939432662677775079e+04
-8.944027471947144659e+04
-8.950053922690429317e+04
-8.952572524407728633e+04
-8.950882119014873751e+04
-8.945885274180378474e+04
-8.941998673266037076e+04
-8.946439036103754188e+04
-8.945541843331231212e+04
-8.944893005197917228e+04
-8.951839556495980651e+04
-8.950826060609571869e+04
-8.942970256366263493e+04
-8.947664922179203131e+04
-8.949775207312859129e+04
-8.946315282479641610e+04
-8.947913277767118416e+04
-8.947414541739386914e+04
-8.946834646084708220e+04
-8.947280208475339168e+04
-8.946745406031311722e+04
-8.951979685867149965e+04
-8.956586418935761321e+04
-8.953613488728304219e+04
-8.949075322475156281e+04
-8.950288194519115495e+04
-8.945687113105681783e+04
-8.947847106408857508e+04
-8.943211663629081158e+04
-8.945299479328813322e+04
-8.949064395891678578e+04
-8.949578134627699910e+04
-8.949651622544087877e+04
-8.953936673338891705e+04
-8.957402869301869941e+04
-8.951074401390926505e+04
-8.950381470950161747e+04
-8.947182302127600997e+04
-8.950186112957818841e+04
-8.943624985808582278e+04
-8.948498734870830958e+04
-8.950048961625862285e+04
-8.949499346812503063e+04
-8.950797363118671637e+04
-8.957603822418150958e+04
-8.954281709961462184e+04
-8.951011426470178412e+04
-8.949257927586312871e+04
-8.949227291535552649e+04
-8.951274620602827054e+04
-8.951445085537341947e+04
-8.952278801431460306e+04
-8.963489980535577342e+04
-8.950930635044905648e+04
-8.942984166331207962e+04
-8.944009728946221003e+04
-8.950041358212914201e+04
-8.942724699690008129e+04
-8.952137561361280677e+04
-8.954047799117457180e+04
-8.954040276432044629e+04
-8.957565118440684455e+04
-8.951636699900381791e+04
-8.954804873207278433e+04
-8.953969680520681140e+04
-8.957808412713509460e+04
-8.952841769008456322e+04
-8.952050595080944186e+04
-8.955938667944076587e+04
-8.956260592940561764e+04
-8.954729566433222499e+04
-8.945539568940554454e+04
-8.965975699836648710e+04
-8.957866921372227080e+04
-8.961039124713957426e+04
-8.955921909039346792e+04
-8.950243574257314322e+04
-8.951936950398862245e+04
-8.953756033647021104e+04
-8.961094376451098651e+04
-8.965679902149015106e+04
-8.994052665087135392e+04
-8.969353903381356213e+04
-8.965490760954200232e+04
-8.961092916096701811e+04
-8.960773785460903309e+04
-8.959304701411632414e+04
-8.960483679380443937e+04
-8.966157443889047136e+04
-8.958036645942069299e+04
-8.961048292036348721e+04
-8.944573100080105360e+04
-8.957065148047282128e+04
-8.960966484158403182e+04
-8.959673589414684102e+04
-8.957731362863251707e+04
-8.955179983586377057e+04
-8.961825165596936131e+04
-8.960118045475309191e+04
-8.965328952417973778e+04
-8.962045802580974123e+04
-8.966534052795848402e+04
-8.957357944949154626e+04
-8.954917557560557907e+04
-8.960397975193850289e+04
-8.960604868330176396e+04
-8.962308480151333788e+04
-8.965132316176284803e+04
-8.956712404474252253e+04
-8.954689602854146506e+04
-8.957271887018679990e+04
-8.962923542873086990e+04
-8.959001453217770904e+04
-8.967160117289895425e+04
-8.959596484813636926e+04
-8.959575173883399111e+04
-8.954133861365751363e+04
-8.955738620357849868e+04
-8.956015015950248926e+04
-8.959000677662542148e+04
-8.958306200004542188e+04
-8.962590037396142725e+04
-8.958809404950861062e+04
-8.959436396638510632e+04
-8.962669137572274485e+04
-8.959786302624254313e+04
-8.950875801672856323e+04
-8.955477930410434783e+04
-8.958599136927990185e+04
-8.958043788434691669e+04
-8.961189739240072959e+04
-8.967395461193894153e+04
-8.970041921932867263e+04
-8.965026862376679492e+04
-8.961304445147396473e+04
-8.961449534535473504e+04
-8.960749607556946285e+04
-8.965131640180968679e+04
-8.966167950424099399e+04
-8.967447729247914685e+04
-8.970718522784773086e+04
-8.973180260804208228e+04
-8.964839547590469010e+04
-8.960876900878225570e+04
-8.965169167078427563e+04
-8.961000880112315645e+04
-8.961177041736325191e+04
-8.964977493182168109e+04
-8.972960889839928132e+04
-8.971504161522521463e+04
-8.970770439485349925e+04
-8.968940552235690120e+04
-8.963296516632010753e+04
-8.959660398764428101e+04
-8.958540456451174396e+04
-8.960630605900408409e+04
-8.958339337451572646e+04
-8.961480232297840121e+04
-8.963482160658312205e+04
-8.962253855234860384e+04
-8.961172724577457120e+04
-8.963344931871203880e+04
-8.967451572733889043e+04
-8.965521970610092103e+04
-8.962884141865400306e+04
-8.960104245207591157e+04
-8.960624316518312844e+04
-8.959338301607653557e+04
-8.959036407342694292e+04
-8.959869655762867478e+04
-8.961161336441957974e+04
-8.964228367712162435e+04
-8.963434801610444265e+04
-8.966019295904897444e+04
-8.968121394858960412e+04
-8.973216325980644615e+04
-8.967031739051290788e+04
-8.968470329778600717e+04
-8.957194057635308127e+04
-8.962976257353910478e+04
-8.969269491725062835e+04
-8.970511842275752861e+04
-8.965662478002933494e+04
-8.977910829400047078e+04
-8.980140823368655401e+04
-8.962277927080979862e+04
-8.966436469935825153e+04
-8.971440900139047881e+04
-8.977200610062817577e+04
-8.965633704213645251e+04
-8.968345474960959109e+04
-8.972994668268419628e+04
-8.977136680895330210e+04
-8.973190275800440577e+04
-8.968396473949521896e+04
-8.979306904134966317e+04
-8.977705428057092649e+04
-8.971489338574194699e+04
-8.970543683033272100e+04
-8.977911509957686940e+04
-8.981854266044047836e+04
-8.968185778027927154e+04
-8.975732630578309181e+04
-8.967794936192018213e+04
-8.977202864284979296e+04
-8.968869757934956579e+04
-8.979573342072182277e+04
-8.970631628879727214e+04
-8.961291692704796151e+04
-8.975099895820833626e+04
-8.972482146862370428e+04
-8.979197673452614981e+04
-8.987444177024388046e+04
-9.018534664889996930e+04
-8.982597767557360930e+04
-8.982760733049796545e+04
-8.976700110826297896e+04
-8.970898709156991390e+04
-8.963838085710883024e+04
-8.972022034605493536e+04
-8.975414516143448418e+04
-8.973984890907278168e+04
-8.978323330170824192e+04
-8.969574467249731242e+04
-8.977981001970499346e+04
-8.979478449955221731e+04
-8.980039598471162026e+04
-8.979606578203102981e+04
-8.973121417463789112e+04
-8.976249726340777124e+04
-8.976087495682897861e+04
-8.974632316822875873e+04
-8.973699840162883629e+04
-8.978781067194936622e+04
-8.974871913059406506e+04
-8.978719685416904395e+04
-8.981810246135128546e+04
-8.978633220303832786e+04
-8.984958865960285766e+04
-8.987646033493072900e+04
-8.974333251880298485e+04
-8.975206417691937531e+04
-8.982863869134354172e+04
-8.977157769953104435e+04
-8.972382433472108096e+04
-8.979984284667414613e+04
-8.979358944064370007e+04
-8.978112600108103652e+04
-8.980894712469766091e+04
-8.981254826673133357e+04
-8.982220209747219633e+04
-8.981540216241724556e+04
-8.975842794749990571e+04
-8.978050045330938883e+04
-8.980770003464657930e+04
-8.980461076660962135e+04
-8.981722558784075954e+04
-8.981763899312587455e+04
-8.983099353059209534e+04
-8.979965472956806479e+04
-8.981944293249945622e+04
-8.979671102773542225e+04
-8.987987629775810638e+04
-8.981942591767903650e+04
-8.983964415878929140e+04
-8.983699962276908627e+04
-8.982963634709730104e+04
-8.982534610070509370e+04
-8.982040716933927615e+04
-8.983236021920759231e+04
-8.980038131473651447e+04
-8.984082560538248799e+04
-8.980451615610413137e+04
-8.983305151030358684e+04
-8.983679647611071414e+04
-8.987177851259017189e+04
-8.989625588776022778e+04
-8.988384128697204869e+04
-8.989134588864860416e+04
-8.987742840302114200e+04
-8.982193477247349801e+04
-8.979325888931502413e+04
-8.977230269346181012e+04
-8.978098849340000015e+04
-8.984639251294183487e+04
-8.985308660771933501e+04
-8.982408231088594766e+04
-8.986262221982717165e+04
-8.989631475791466073e+04
-8.974287616889621131e+04
-8.980290368053530983e+04
-8.979975857307347178e+04
-8.983392505751171848e+04
-8.983077334774211340e+04
-8.985188494930247543e+04
-8.983743451069964794e+04
-8.986364305925798544e+04
-8.989648921029265330e+04
-8.978390645380424394e+04
-8.987535127167515748e+04
-8.988205412018502830e+04
-8.987185249834487331e+04
-8.979585420423159667e+04
-8.982084034977517149e+04
-8.990135052515313146e+04
-8.985100255914905574e+04
-8.988780438211717410e+04
-8.983744539923094271e+04
-8.988118850226383074e+04
-8.985221198693767656e+04
-8.985337034721366945e+04
-8.987779205151165661e+04
-8.991607922852603951e+04
-9.001379285207207431e+04
-8.980821603504715313e+04
-8.980828116266425059e+04
-8.978261459862656193e+04
-8.989217807229785831e+04
-8.986092708716343623e+04
-8.989548523573258717e+04
-8.997756343988745357e+04
-8.988317635781501303e+04
-8.983944940448898706e+04
-8.981214220500139345e+04
-8.991304184236042784e+04
-8.988594613500201376e+04
-8.991453921380138490e+04
-8.994873750429965730e+04
-8.982637965620154864e+04
-8.994958358396070253e+04
-8.994035113338789961e+04
-9.003450957238237606e+04
-8.987863699582178378e+04
-8.985892500507188379e+04
-8.994108314537168189e+04
-8.988647169932213728e+04
-8.998784416684210009e+04
-9.012946441141901596e+04
-9.044565669255502871e+04
-9.003466922452666040e+04
-9.006784879364405060e+04
-8.994757921629585326e+04
-8.992351325839884521e+04
-8.980918046454570140e+04
-8.996531891961730435e+04
-9.003633323786861729e+04
-8.993748578266767436e+04
-8.996072535213024821e+04
-8.986345651963174168e+04
-8.994935683322476689e+04
-8.992429921177706274e+04
-8.998362823786868830e+04
-8.999519391585010453e+04
-8.996818322539550718e+04
-9.001698751657594403e+04
-8.995057108740175318e+04
-8.996811493616615189e+04
-8.994118610488297418e+04
-9.002278274816652993e+04
-8.994079694634379121e+04
-8.997522552188335976e+04
-9.008547875673443195e+04
-9.005071726460471109e+04
-8.999507992722917697e+04
-9.000319896990482812e+04
-8.998667278740848997e+04
-8.993310115131405473e+04
-8.993010022891550034e+04
-9.001838677595175977e+04
-9.000157857605666504e+04
-9.004562205355995684e+04
-8.995391793497785693e+04
-9.002776117899746168e+04
-8.996694868201635836e+04
-9.001580075069006125e+04
-9.001166145812386821e+04
-9.000489193177229026e+04
-9.000873046493886795e+04
-9.003993106065604661e+04
-8.996185612121374288e+04
-8.992457411434847745e+04
-9.001530698580836179e+04
-8.998005100932894857e+04
-8.998809438648946525e+04
-8.999993325487901166e+04
-9.001978535173845012e+04
-9.006710523581787129e+04
-9.004984420878549281e+04
-8.998282905954401940e+04
-9.008664207548249396e+04
-9.007878119937946030e+04
-8.997214655476178450e+04
-8.998272987976155127e+04
-9.003627366656078084e+04
-8.997810112987105094e+04
-8.998367983062323765e+04
-9.000537918711025850e+04
-9.003944973171854508e+04
-9.005245659456438443e+04
-9.000305112427499262e+04
-9.000601090854771610e+04
-9.002354832802977762e+04
-9.004021326512128871e+04
-9.002666101235085807e+04
-9.008816407150159648e+04
-9.009765722476776864e+04
-9.008305061873221712e+04
-9.001654642994828464e+04
-9.001330665515892906e+04
-9.000162318273946585e+04
-8.999770662106024974e+04
-9.007532616594443971e+04
-9.011851674573360651e+04
-9.010613051366605214e+04
-9.009158134642729419e+04
-9.010571243414707715e+04
-9.001509692992958298e+04
-9.004532229464739794e+04
-9.008974676806654315e+04
-9.009321393839801021e+04
-9.006242743640620029e+04
-9.008335627794508764e+04
-9.005502830365371483e+04
-9.007322181077400455e+04
-9.009399669078203442e+04
-9.009846907842889777e+04
-9.015738426459471521e+04
-9.013247209754626965e+04
-9.008224930666266300e+04
-9.008152886028266221e+04
-9.009331937887407548e+04
-9.005822373044096457e+04
-9.014090027709060814e+04
-9.013243708309151407e+04
-9.012226282563855057e+04
-9.011696035203183419e+04
-9.008685619341886195e+04
-9.004443026658149029e+04
-9.008833084757783217e+04
-9.010036773295298917e+04
-9.015202110633216216e+04
-9.018616938676869904e+04
-9.016804352504518465e+04
-9.014835641051678977e+04
-9.013162025662824453e+04
-9.012982029768318171e+04
-9.014238295191271754e+04
-9.016400723570544505e+04
-9.019671181480509404e+04
-9.020861260405785288e+04
-9.013839145076148270e+04
-9.011873881736405019e+04
-9.010152341616194462e+04
-9.008499250176100759e+04
-9.012707394227193436e+04
-9.016079957659350475e+04
-9.016964375712948095e+04
-9.021351192024671764e+04
-9.024330891548239742e+04
-9.017790326127054868e+04
-9.005717069961225206e+04
-9.016077442968604737e+04
-9.025509337889491871e+04
-9.022490237302782771e+04
-9.025217280834057601e+04
-9.053081149821328290e+04
-9.039628759019834979e+04
-9.023305817016570654e+04
-9.020169320503616473e+04
-9.023703303960578342e+04
-9.013832272215749254e+04
-9.010784066372473899e+04
-9.012613141819553857e+04
-9.019951037424104288e+04
-9.017796043450843717e+04
-9.007083023293118458e+04
-9.016487056989534176e+04
-9.020575833293814503e+04
-9.019282714510304504e+04
-9.016492719342587225e+04
-9.017018683319422416e+04
-9.017754323827270127e+04
-9.019303270788202644e+04
-9.015775389891378290e+04
-9.015453422005212633e+04
-9.017704062694209279e+04
-9.016081715167223592e+04
-9.016475944590625295e+04
-9.016380221328054904e+04
-9.016761535163519147e+04
-9.021518214360182174e+04
-9.017481242185489100e+04
-9.017598103612774867e+04
-9.017164891781451297e+04
-9.020092214077965764e+04
-9.020063707637620973e+04
-9.020857356159359915e+04
-9.017749504026997602e+04
-9.022371904754087154e+04
-9.023192108891250973e+04
-9.021549144950306800e+04
-9.026409866885002702e+04
-9.023488211700897955e+04
-9.023284982446073263e+04
-9.024914423668378731e+04
-9.020173428343853448e+04
-9.018679201770937652e+04
-9.031954414086071483e+04
-9.032683704353088979e+04
-9.023779653602017788e+04
-9.029504234503312910e+04
-9.028351521464575490e+04
-9.020711139371291210e+04
-9.020977479484204378e+04
-9.024722371580098115e+04
-9.028936490563959524e+04
-9.030230442876613233e+04
-9.027981313417408091e+04
-9.021308458469965262e+04
-9.029106485606743081e+04
-9.023059224926814204e+04
-9.022240659611941373e+04
-9.026260765789936704e+04
-9.030244212163551128e+04
-9.029973356996617804e+04
-9.025114096198980405e+04
-9.026507604265170812e+04
-9.027557649807614507e+04
-9.033144099747115979e+04
-9.022918597551905259e+04
-9.030440896936254285e+04
-9.032401397644895769e+04
-9.029585609935248794e+04
-9.025634260523252306e+04
-9.028991022481049004e+04
-9.028888748874237353e+04
-9.026060345343832159e+04
-9.030413710820913548e+04
-9.032407406757907302e+04
-9.031488440361972607e+04
-9.030270438481465681e+04
-9.029484152092642034e+04
-9.023886169312731363e+04
-9.021411426415217284e+04
-9.029483295160134730e+04
-9.028110597581787442e+04
-9.027897660563730460e+04
-9.030656157037522644e+04
-9.029486129013122991e+04
-9.030201676745410077e+04
-9.033285827405788586e+04
-9.034062725867469271e+04
-9.032919273212112603e+04
-9.039179095032527403e+04
-9.025533406998055580e+04
-9.022885905737946450e+04
-9.024309868686644768e+04
-9.030470466861985915e+04
-9.020958039825280139e+04
-9.026067020777294238e+04
-9.029624552779384248e+04
-9.029816192309067992e+04
-9.028698660156954429e+04
-9.032170076933653036e+04
-9.041758247854701767e+04
-9.026845783764091902e+04
-9.031148498394434864e+04
-9.026101413672220951e+04
-9.029686361364088953e+04
-9.024290307145971747e+04
-9.032632536398620869e+04
-9.032725354498918750e+04
-9.027355920405250799e+04
-9.040059560054761823e+04
-9.031471078128754743e+04
-9.041968196859369345e+04
-9.030310688995472447e+04
-9.041144158075845917e+04
-9.027991966155558475e+04
-9.030016638380660152e+04
-9.038127332633853075e+04
-9.034540096747447387e+04
-9.038191910752534750e+04
-9.028681685733303311e+04
-9.043205951798420574e+04
-9.037478140387688472e+04
-9.042990022176869388e+04
-9.035198175661203277e+04
-9.028009725802188041e+04
-9.041313704266531568e+04
-9.019155393501459912e+04
-9.043112108375217940e+04
-9.050490703239875438e+04
-9.090370679462312546e+04
-9.050304797160436283e+04
-9.020765901140503411e+04
-9.041285032740799943e+04
-9.048236570034910983e+04
-9.041499267808470177e+04
-9.059414699967132765e+04
-9.147826715425027942e+04
-9.079882082124732551e+04
-9.057264702745870454e+04
-9.041353022347662773e+04
-9.044816584230116860e+04
-9.020954665764041420e+04
-9.036450846942787757e+04
-9.049958248881656618e+04
-9.043838857327681035e+04
-9.050136993334788713e+04
-9.020158042996677977e+04
-9.038075686691133888e+04
-9.044289912739799183e+04
-9.044968588727008319e+04
-9.038452149050735170e+04
-9.034715046864133910e+04
-9.045650698607250524e+04
-9.034765102359231969e+04
-9.044826453009976831e+04
-9.043259492978204798e+04
-9.045219173334789230e+04
-9.034849602056683216e+04
-9.038743909460904251e+04
-9.039444119905396656e+04
-9.028251392234931700e+04
-9.048425709647484473e+04
-9.040763757047989930e+04
-9.039672445171554864e+04
-9.038905412538754172e+04
-9.049822660843915946e+04
-9.041050931881699944e+04
-9.041528414039373456e+04
-9.040789681420428678e+04
-9.035698047423362732e+04
-9.041347047378247953e+04
-9.041527627672285598e+04
-9.040149887236520590e+04
-9.043473524929049017e+04
-9.044336727465536387e+04
-9.039151092670673097e+04
-9.038371181566294399e+04
-9.048302497646799020e+04
-9.047085406176335528e+04
-9.050084999880427495e+04
-9.047229284728478524e+04
-9.043091387962755107e+04
-9.044724340607438353e+04
-9.047825623057635676e+04
-9.047501803909090813e+04
-9.049963165902216861e+04
-9.057754260497100768e+04
-9.044601368826272665e+04
-9.040132106094906339e+04
-9.042222106704878388e+04
-9.042251448250323301e+04
-9.038860396351598320e+04
-9.045841216447083571e+04
-9.048371021644306893e+04
-9.045554031786065025e+04
-9.047922620806872146e+04
-9.047744785316589696e+04
-9.049766858043687535e+04
-9.051412432178496965e+04
-9.049950549099834461e+04
-9.050316966879078245e+04
-9.048644171212690708e+04
-9.049939842007716652e+04
-9.049753860390704358e+04
-9.053568322239210829e+04
-9.051636008976459561e+04
-9.052435225605894811e+04
-9.052496546725927328e+04
-9.046956888538428757e+04
-9.054947067682728812e+04
-9.052057034350428148e+04
-9.052508206207951298e+04
-9.052098463672745856e+04
-9.060818882249419403e+04
-9.046281323100722511e+04
-9.049027899157248612e+04
-9.054759170617363998e+04
-9.046364095360314241e+04
-9.047132911892680568e+04
-9.053211888124534744e+04
-9.053208412246196531e+04
-9.049978191293594136e+04
-9.053519980071208556e+04
-9.047336014097326552e+04
-9.046822427240827528e+04
-9.051456588940091024e+04
-9.045789435477185179e+04
-9.051174774599028751e+04
-9.051404443551239092e+04
-9.054651781851582928e+04
-9.051961071755879675e+04
-9.052968825905380072e+04
-9.053837105039336893e+04
-9.054192386118751892e+04
-9.055549182453678804e+04
-9.051498826431158523e+04
-9.055108905197502463e+04
-9.057132364576919645e+04
-9.061766996403421217e+04
-9.055980617958700168e+04
-9.057486785293613502e+04
-9.063093135668999457e+04
-9.057471571091189981e+04
-9.051511021815137065e+04
-9.052855127011235163e+04
-9.056366679018060677e+04
-9.048167972167744301e+04
-9.045445515992007859e+04
-9.053663111848557310e+04
-9.055514842469296127e+04
-9.053938377893911093e+04
-9.051292790300122579e+04
-9.047594780308048939e+04
-9.052733363932112115e+04
-9.057992752593175101e+04
-9.057768913707375759e+04
-9.063555518812517403e+04
-9.086594193737575551e+04
-9.069880410659710469e+04
-9.065968520009802887e+04
-9.064327769198470924e+04
-9.067093189250360592e+04
-9.049025957314118568e+04
-9.054728471314995841e+04
-9.054853485775690933e+04
-9.062747605097675114e+04
-9.063881569296859379e+04
-9.055874613416896318e+04
-9.062142890191343031e+04
-9.060210567825830367e+04
-9.061826689785775670e+04
-9.052317388220956491e+04
-9.063802562053789734e+04
-9.060761253257533826e+04
-9.059787691511459707e+04
-9.049816615383223689e+04
-9.055087861372261250e+04
-9.069813415075094963e+04
-9.064117459473595954e+04
-9.070127199269145785e+04
-9.059278620059533569e+04
-9.060612018011731561e+04
-9.064433444065520598e+04
-9.077397287550015608e+04
-9.081621020817381213e+04
-9.086574250040424522e+04
-9.082945410075808468e+04
-9.052589356647274690e+04
-9.063410465026159363e+04
-9.056900467911474698e+04
-9.083769571170092968e+04
-9.091555013794363185e+04
-9.073492302206261957e+04
-9.071880256325448863e+04
-9.088916554315798567e+04
-9.111983689575623430e+04
-9.117864291172989761e+04
-9.171299252403891296e+04
-9.126495108126715058e+04
-9.089238537809721311e+04
-9.064023891693468613e+04
-9.070079967169823067e+04
-9.084161998502525967e+04
-9.112723462604411179e+04
-9.162564735295389255e+04
-9.122343926440218638e+04
-9.110189940112696786e+04
-9.085570934063600725e+04
-9.129398459103638015e+04
-9.162566284093323338e+04
-9.184385443849634612e+04
-9.213764772246296343e+04
-9.201511964090575930e+04
-9.209210149651936081e+04
-9.135887288014921069e+04
-9.147002141932357335e+04
-9.124228253523199237e+04
-9.207034928276899154e+04
-9.203132974060653942e+04
-9.205095560679493065e+04
-9.306897993340308312e+04
-9.317932100827396789e+04
-9.193090382298995974e+04
-9.128446297883492662e+04
-9.195465943601595063e+04
-9.172023630820716789e+04
-9.177770529098359111e+04
-9.292295673097211693e+04
-9.345619033936697815e+04
-9.393421640128921717e+04
-9.244594291248038644e+04
-9.314548785216675606e+04
-9.319553638226608746e+04
-9.314182710194624087e+04
-9.191988273535831831e+04
-9.281168474261992378e+04
-9.209889662077155663e+04
-9.118529560862008657e+04
-9.207110243383614579e+04
-9.314155330694802979e+04
-9.365788890456470835e+04
-9.341222928124036116e+04
-9.372628382073860848e+04
-9.274000056126106938e+04
-9.158607172256178455e+04
-9.159662935734396160e+04
-9.200156601128837792e+04
-9.329805334794131340e+04
-9.313326753633876797e+04
-9.365644076246061013e+04
-9.295330577591867768e+04
-9.326209954260804807e+04
-9.185032599119258521e+04
-9.227925459007895552e+04
-9.351055917578926892e+04
-9.399946339869077201e+04
-9.342536421549820807e+04
-9.323678978716615529e+04
-9.343215948734107951e+04
-9.188367517786996905e+04
-9.128969449184100085e+04
-9.167704665104560263e+04
-9.219105074371238879e+04
-9.216132720581674948e+04
-9.250403534009681607e+04
-9.318780958596827986e+04
-9.273043942995239922e+04
-9.310438041558541590e+04
-9.267036472866809345e+04
-9.247831750871299300e+04
-9.210870539317403745e+04
-9.271719849049576442e+04
-9.287799940189534391e+04
-9.258787108895760321e+04
-9.275286272742472647e+04
-9.310335374454254634e+04
-9.244753771138544835e+04
-9.116552012377572828e+04
-9.187799872523875092e+04
-9.264357927635575470e+04
-9.225130485644080909e+04
-9.279339017325917666e+04
-9.302832357613758359e+04
-9.300425867493153783e+04
-9.241224549338176439e+04
-9.228582333220810688e+04
-9.214345385500660632e+04
-9.289264915430142719e+04
-9.270097602954896865e+04
-9.205689677634465625e+04
-9.216126613194857782e+04
-9.137687037531952956e+04
-9.192165023371696589e+04
-9.201765952729972196e+04
-9.257320654953853227e+04
-9.280318168811022770e+04
-9.367209210254301433e+04
-9.240608550950975041e+04
-9.166470921179202560e+04
-9.173592543562554056e+04
-9.156801355896676250e+04
-9.155643980690246099e+04
-9.162357939409893879e+04
-9.216072749289224157e+04
-9.194396870943473186e+04
-9.194837680444450234e+04
-9.165465267672132177e+04
-9.176935244842818065e+04
-9.184104004668435664e+04
-9.183599236137031403e+04
-9.173372578066869755e+04
-9.150870519872213481e+04
-9.162993488619345590e+04
-9.163316634863517538e+04
-9.176985744513361715e+04
-9.160321132266242057e+04
-9.164416794503752317e+04
-9.181284865344782884e+04
-9.164004615283240855e+04
-9.148831825578805001e+04
-9.156552913278935011e+04
-9.160572185321077995e+04
-9.146146246877245721e+04
-9.129379207944170048e+04
-9.120665077944527729e+04
-9.138433125816509710e+04
-9.157704696146797505e+04
-9.142303054105305637e+04
-9.148679441780889465e+04
-9.141375149059588148e+04
-9.114956243302536313e+04
-9.101388886860595085e+04
-9.087918093039513042e+04
-9.098509370895182656e+04
-9.109898205442343897e+04
-9.116304131698330457e+04
-9.100566733810126607e+04
-9.110660420396421978e+04
-9.093730104643978120e+04
-9.089796969393244945e+04
-9.088208093675394775e+04
-9.080345080962333304e+04
-9.088634654355773819e+04
-9.091389119903548271e+04
-9.084780121045396663e+04
-9.071945950800526771e+04
-9.070336379753434449e+04
-9.054592716393299634e+04
-9.053614593344650348e+04
-9.048607215177215403e+04
-9.050017555448773783e+04
-9.067264212046471948e+04
-9.056029938041424612e+04
-9.044013674422612530e+04
-9.049294658309069928e+04
-9.056797409043081279e+04
-9.046190828716466785e+04
-9.054000408522458747e+04
-9.057038830335500825e+04
-9.041165754161527730e+04
-9.026046817973941506e+04
-9.019473141455839504e+04
-9.025790326075817575e+04
-9.030019895621045725e+04
-9.039272461014021246e+04
-9.043086211018363247e+04
-9.043810415852289589e+04
-9.035090372023842065e+04
-9.030060727199862595e+04
-9.037199280834077217e+04
-9.038927978701800748e+04
-9.028009051666346204e+04
-9.034302925920464622e+04
-9.030098828290657548e+04
-9.013907410296029411e+04
-9.012223162142533693e+04
-9.021202048665241455e+04
-9.011027036619995488e+04
-9.021151955871097744e+04
-9.021086279090991593e+04
-9.019546104407850362e+04
-9.028157529852961306e+04
-9.020916293292518822e+04
-9.012023928480233008e+04
-9.027585886398132425e+04
-9.027627710848119750e+04
-9.021686206193361431e+04
-9.032671185583127954e+04
-9.027839110314834397e+04
-9.014860676941490965e+04
-9.017510574672232906e+04
-9.010924904753784358e+04
-9.012917420504958136e+04
-9.024226089630053320e+04
-9.024533794353509438e+04
-9.023955370518863492e+04
-9.020878900140410406e+04
-9.017741982981195906e+04
-9.017187895623980148e+04
-9.024167797708247963e+04
-9.015664439062459860e+04
-9.019210546373233956e+04
-9.027932275075621146e+04
-9.023256548853193817e+04
-9.017538484997574415e+04
-9.021672787600144511e+04
-9.032050055772242195e+04
-9.019526552264259954e+04
-9.003301964987105748e+04
-9.013329325882400735e+04
-9.028039301853954385e+04
-9.025338656031028950e+04
-9.022110543237545062e+04
-9.058184326377035177e+04
-9.045666571362157993e+04
-9.030604485300983652e+04
-9.021914685797199490e+04
-9.027419458011929237e+04
-9.016981388448686630e+04
-9.023031664485728834e+04
-9.029709359455951198e+04
-9.031224074373001349e+04
-9.039895277952721517e+04
-9.023225212001602631e+04
-9.026120593647344504e+04
-9.019060917028828408e+04
-9.023767335595317127e+04
-9.017876835504238261e+04
-9.021954857744883338e+04
-9.015616720512938628e+04
-9.020698464781866642e+04
-9.019203887900637346e+04
-9.018779869684796722e+04
-9.023916042738710530e+04
-9.028816873247135663e+04
-9.028254764115936996e+04
-9.021826711920299567e+04
-9.024467611720593413e+04
-9.027588246453634929e+04
-9.026309603328806406e+04
-9.022983335722825723e+04
-9.032254307299491484e+04
-9.020579328336901381e+04
-9.018558279865003715e+04
-9.019427961215992400e+04
-9.024145339001905813e+04
-9.020173394755256595e+04
-9.024412280311767245e+04
-9.023861005729778844e+04
-9.021121469473748584e+04
-9.019226849746488733e+04
-9.021236828246286314e+04
-9.027627656071346428e+04
-9.023631464281666558e+04
-9.025857480495961499e+04
-9.027868660270268447e+04
-9.021733870266254235e+04
-9.022325770504871616e+04
-9.022739464172371663e+04
-9.020870356960718345e+04
-9.019217992211380624e+04
-9.019632641705249262e+04
-9.020363376681705995e+04
-9.027304444536643859e+04
-9.030429849284490047e+04
-9.025340430656107492e+04
-9.027997580462737824e+04
-9.021292181138032174e+04
-9.018394332154937729e+04
-9.017158770365708915e+04
-9.021398443570267409e+04
-9.026639542091489420e+04
-9.022622140867210692e+04
-9.020630682082517887e+04
-9.021937320904781518e+04
-9.025701706133926928e+04
-9.022137922760832589e+04
-9.028894841497564630e+04
-9.031497997200158716e+04
-9.030802526373309956e+04
-9.027021333170916478e+04
-9.023782947708162828e+04
-9.025245792657254788e+04
-9.025046838623669464e+04
-9.024254518248722889e+04
-9.027593570435784932e+04
-9.031096167449821951e+04
-9.036402952656954585e+04
-9.031107915501391108e+04
-9.033013459128940303e+04
-9.033434259900076722e+04
-9.032479038898488216e+04
-9.028205064276423946e+04
-9.034811161593912402e+04
-9.038857404864465934e+04
-9.037088244523806497e+04
-9.036510086265527934e+04
-9.032641389521727979e+04
-9.037764827967691235e+04
-9.031457508494087961e+04
-9.031938415904810245e+04
-9.036520332154324569e+04
-9.039674469063631841e+04
-9.033718018920293252e+04
-9.041289511511736782e+04
-9.039873196653484774e+04
-9.036565824262209935e+04
-9.035958083904418163e+04
-9.037039922482993279e+04
-9.035046814915089635e+04
-9.039386483771425264e+04
-9.042990460705767327e+04
-9.038709670757260756e+04
-9.042874452926300000e+04
-9.040286230265637278e+04
-9.038411823028123763e+04
-9.035815562624890299e+04
-9.038490726364012517e+04
-9.038879239533112559e+04
-9.037847396722571284e+04
-9.038142047715393710e+04
-9.034320268347889942e+04
-9.043420965941844042e+04
-9.030221739735722076e+04
-9.028982190153503325e+04
-9.031915027828262828e+04
-9.031618463257250551e+04
-9.038983322547661373e+04
-9.036558004436473129e+04
-9.044643364191873115e+04
-9.038258004007341515e+04
-9.044040000117392628e+04
-9.032916396787342092e+04
-9.036581122198168305e+04
-9.036908948190796946e+04
-9.038352201634015364e+04
-9.043472661614278331e+04
-9.023673523261431546e+04
-9.050909514768807276e+04
-9.046641989831447427e+04
-9.049819031733646989e+04
-9.040033625584245601e+04
-9.018532924717056449e+04
-9.053401196825671650e+04
-9.060913070992997382e+04
-9.067383433918308583e+04
-9.079004160805583524e+04
-9.166957342860770586e+04
-9.066401625702514139e+04
-9.053283382020446879e+04
-9.054558376051127561e+04
-9.039827450349291030e+04
-9.013179100285984168e+04
-9.043587659301719395e+04
-9.055436689964574180e+04
-9.047603464229786186e+04
-9.059511066295174533e+04
-9.028878610984816623e+04
-9.052354483136399358e+04
-9.056534341335788486e+04
-9.051783120765612694e+04
-9.048915468698012410e+04
-9.041153238980434253e+04
-9.056191303197416710e+04
-9.044502667613058293e+04
-9.046970337511740217e+04
-9.046632631349746953e+04
-9.052754198245477164e+04
-9.041818213611432293e+04
-9.045559164372009400e+04
-9.053548143182515923e+04
-9.047057759066764265e+04
-9.066603294108760019e+04
-9.050999567816215858e+04
-9.045938238478319545e+04
-9.047176294435796444e+04
-9.051178425921832968e+04
-9.049584853081406618e+04
-9.044732175045346958e+04
-9.054837432460780838e+04
-9.043802918645300088e+04
-9.046674783636188658e+04
-9.044045668516981823e+04
-9.050293412384408293e+04
-9.048839545658786665e+04
-9.051487830375385238e+04
-9.052050535918827518e+04
-9.042956299335969379e+04
-9.053883474798525276e+04
-9.049677943152473017e+04
-9.054785642824404931e+04
-9.049788887786230771e+04
-9.047953554840983998e+04
-9.051758965953966253e+04
-9.052049140428555256e+04
-9.051115259730639809e+04
-9.052131771326580201e+04
-9.061683409037631645e+04
-9.048382232808342087e+04
-9.049611834983962763e+04
-9.048281827654932567e+04
-9.049221584770116897e+04
-9.047914190304196381e+04
-9.049939671580512368e+04
-9.053939269941621751e+04
-9.055384996327548288e+04
-9.056729064846402616e+04
-9.053066519248220720e+04
-9.056160086852755921e+04
-9.052516445150940854e+04
-9.049153327004805033e+04
-9.055113326418647193e+04
-9.060621626817664946e+04
-9.059150688613740203e+04
-9.059614638306343113e+04
-9.066484175602882169e+04
-9.057862481309687428e+04
-9.053462150064736488e+04
-9.056794651500765758e+04
-9.060624179129156983e+04
-9.058975922193958831e+04
-9.059404280778688553e+04
-9.064597878627109458e+04
-9.063850023256512941e+04
-9.061433644721744349e+04
-9.057828546394196746e+04
-9.059500644259992987e+04
-9.053839437382711913e+04
-9.057028212501478265e+04
-9.059858970178874733e+04
-9.061639532297426194e+04
-9.064754215925282915e+04
-9.064941377237111737e+04
-9.062400135009981750e+04
-9.060651399848026631e+04
-9.064452680012059864e+04
-9.064388661116652656e+04
-9.070550643276413030e+04
-9.066484779600134061e+04
-9.062628582643420668e+04
-9.061317141693161102e+04
-9.059438099877738568e+04
-9.057677291547336790e+04
-9.061556517977302428e+04
-9.069606635950885538e+04
-9.066857366028714750e+04
-9.065613065879904025e+04
-9.066249689549051982e+04
-9.065752344916200673e+04
-9.064271434255212080e+04
-9.067178830068293610e+04
-9.072352675524391816e+04
-9.066275857250469562e+04
-9.070008291310035565e+04
-9.067039110418494965e+04
-9.067909398521846742e+04
-9.064846686631861667e+04
-9.060852411532565020e+04
-9.062072175213095034e+04
-9.063477720193458663e+04
-9.062795345533061482e+04
-9.062872465341597854e+04
-9.076104195206642908e+04
-9.069451025929815660e+04
-9.072805890533735510e+04
-9.067572922172721883e+04
-9.055502627906812995e+04
-9.070187140305235516e+04
-9.073045082907314645e+04
-9.070511232112262223e+04
-9.080776274206109520e+04
-9.105688749632064719e+04
-9.072432303993091045e+04
-9.071828597692392941e+04
-9.073353731857727689e+04
-9.070438195206907403e+04
-9.060663087240055029e+04
-9.068277072127979773e+04
-9.074950896599583211e+04
-9.069543755418172805e+04
-9.068869758239363728e+04
-9.064979370151247713e+04
-9.072546160343235533e+04
-9.066500718747642532e+04
-9.076536756595644692e+04
-9.071778464304134832e+04
-9.065124060037893651e+04
-9.067773460169923783e+04
-9.067865083866925852e+04
-9.062871629917692917e+04
-9.065940973784032394e+04
-9.074038835558696883e+04
-9.073166646825397038e+04
-9.072889136194047751e+04
-9.069235363041132223e+04
-9.070005068696373201e+04
-9.074000871973739413e+04
-9.069120921970432391e+04
-9.067841491747635882e+04
-9.074063159804327006e+04
-9.075967854704221827e+04
-9.070776145522249863e+04
-9.068052601020010479e+04
-9.074121193859676714e+04
-9.071233790102806233e+04
-9.068769951256659988e+04
-9.066302173563643009e+04
-9.073541813938163978e+04
-9.071332424609163718e+04
-9.071434046853418113e+04
-9.072531558357502217e+04
-9.077398825042975659e+04
-9.072657505663009943e+04
-9.068261867442022776e+04
-9.068297982284345198e+04
-9.069977924653133960e+04
-9.066497856641978433e+04
-9.069755029736887082e+04
-9.073633668027858948e+04
-9.076020874430664117e+04
-9.070339247788931243e+04
-9.072138768270205765e+04
-9.069398849497384799e+04
-9.070055751483177301e+04
-9.069529714985884493e+04
-9.075136160444725829e+04
-9.076861039802471350e+04
-9.076057989547810575e+04
-9.074519076639728155e+04
-9.071968063382283435e+04
-9.069551410882214259e+04
-9.067631272971344879e+04
-9.070363045597243763e+04
-9.072170216403540689e+04
-9.071900247763759398e+04
-9.075718874571105698e+04
-9.073112384674514760e+04
-9.074458504572381207e+04
-9.069723040615215723e+04
-9.076010443604589091e+04
-9.072647365414530213e+04
-9.072494650033967628e+04
-9.069984727676500916e+04
-9.073528007585271553e+04
-9.072566362498128728e+04
-9.067920777516212547e+04
-9.073424490238550061e+04
-9.072066596372799540e+04
-9.072836221301610931e+04
-9.068411065761743521e+04
-9.076239563919149805e+04
-9.073833892190850747e+04
-9.075230079745077819e+04
-9.075874673238793912e+04
-9.069457139157695929e+04
-9.072908137738314690e+04
-9.075605064075053087e+04
-9.074116671859889175e+04
-9.072333484066739038e+04
-9.084940883623083937e+04
-9.076438650191153283e+04
-9.068340062292906805e+04
-9.068492475300219667e+04
-9.071287401257267629e+04
-9.071846511217099032e+04
-9.073129696650133701e+04
-9.077058564832276898e+04
-9.080221471330254280e+04
-9.075973620101546112e+04
-9.074901833325924235e+04
-9.075331913703019382e+04
-9.076465048864162236e+04
-9.078487787132561789e+04
-9.079593299620276957e+04
-9.072857709843147313e+04
-9.073436291181000706e+04
-9.077402109226738685e+04
-9.072459219433434191e+04
-9.071408349544242083e+04
-9.070944654375531536e+04
-9.075085238667544036e+04
-9.069517788469472725e+04
-9.069344328354678873e+04
-9.072039323884759506e+04
-9.076327507393185806e+04
-9.077064064321162004e+04
-9.076265458873678290e+04
-9.073613265606587811e+04
-9.076792681548996188e+04
-9.078244620196009055e+04
-9.072563535631539708e+04
-9.073200830960462918e+04
-9.068843417816632427e+04
-9.070937992172110535e+04
-9.077841062560814316e+04
-9.076875324708041444e+04
-9.081989713168077287e+04
-9.107352088259111042e+04
-9.093085412957867084e+04
-9.080977547796515864e+04
-9.083094332978033344e+04
-9.082573150178167270e+04
-9.065378148185291502e+04
-9.071892811038959189e+04
-9.075299174002594373e+04
-9.078254943678315612e+04
-9.070810617581146653e+04
-9.062680076518745045e+04
-9.071347517734450230e+04
-9.072577976574329659e+04
-9.073415759867284214e+04
-9.076202650854270905e+04
-9.080749640594053199e+04
-9.072132029755764233e+04
-9.071552556168858428e+04
-9.069898800166424189e+04
-9.069982361401470553e+04
-9.073626124866463942e+04
-9.074336004404874984e+04
-9.072754576433924376e+04
-9.066353271044505527e+04
-9.068453660581131408e+04
-9.067282345808375976e+04
-9.066847081920577330e+04
-9.069448257679592643e+04
-9.070534249314754561e+04
-9.070413653221992718e+04
-9.074067476190239540e+04
-9.072962735359901853e+04
-9.071137957755854586e+04
-9.079257092034311790e+04
-9.073959578316794068e+04
-9.065497377735367627e+04
-9.067300131950610375e+04
-9.068434451238701877e+04
-9.066060235147346975e+04
-9.068660671352458303e+04
-9.071618536369822687e+04
-9.073556976951574325e+04
-9.075319365055923117e+04
-9.071025239949357638e+04
-9.072472435500557185e+04
-9.072334668608603533e+04
-9.074166264250903623e+04
-9.071321791739990294e+04
-9.070304815030387545e+04
-9.072568970518141577e+04
-9.078246105070825433e+04
-9.071096259670503787e+04
-9.071323696827849199e+04
-9.077868758302637434e+04
-9.073945731877702929e+04
-9.066929573627006903e+04
-9.071821235792239895e+04
-9.072153317557493574e+04
-9.070515936611300276e+04
-9.070585641456955636e+04
-9.074844916868204018e+04
-9.069482532689120853e+04
-9.071543821576976916e+04
-9.074411405533843208e+04
-9.074647681110276608e+04
-9.072461938755844312e+04
-9.078244921273591171e+04
-9.080486491412881878e+04
-9.070157625780533999e+04
-9.071638491996043012e+04
-9.070052179353844258e+04
-9.072846285825394443e+04
-9.070190201986956527e+04
-9.075628050355384767e+04
-9.075733384224481415e+04
-9.077048294628955773e+04
-9.073963375073966745e+04
-9.068539286521413305e+04
-9.076018887286496465e+04
-9.078474215500085847e+04
-9.076892690274585038e+04
-9.073280581666137732e+04
-9.080776377623573353e+04
-9.073299091388891975e+04
-9.064655621615916607e+04
-9.072812557441592799e+04
-9.070872750726602681e+04
-9.070498622638997040e+04
-9.070497263284085784e+04
-9.074579209456883837e+04
-9.067223213162618049e+04
-9.072484232152094773e+04
-9.071148681059203227e+04
-9.069623367439029971e+04
-9.073103714501099603e+04
-9.072911197538452689e+04
-9.074402571134407481e+04
-9.071943315852839442e+04
-9.075042467337215203e+04
-9.073961105181805033e+04
-9.066881021606725699e+04
-9.068719569180785038e+04
-9.069232352437428199e+04
-9.070533777235860180e+04
-9.068140449229642400e+04
-9.078495927470103197e+04
-9.069475959600391798e+04
-9.072315590112141217e+04
-9.072968381740892073e+04
-9.071436760537317605e+04
-9.075263243190510548e+04
-9.074320233332840144e+04
-9.074368794826237718e+04
-9.077055146651474934e+04
-9.076152367976735695e+04
-9.067667236125738418e+04
-9.074989372356173408e+04
-9.076852466031363292e+04
-9.066573425643917290e+04
-9.071473917369787523e+04
-9.070982401752298756e+04
-9.074490229676822491e+04
-9.067371104009656119e+04
-9.063505716036740341e+04
-9.075726048346822790e+04
-9.078220663164021971e+04
-9.077691287303644640e+04
-9.088437677774344047e+04
-9.107886394294929050e+04
-9.083996458356060612e+04
-9.086130146531132050e+04
-9.078444333948241547e+04
-9.069759548227785854e+04
-9.067477051766830846e+04
-9.075544934697955614e+04
-9.075094173928638338e+04
-9.077272578034437902e+04
-9.081375260923212045e+04
-9.074829678448001505e+04
-9.079490572055759549e+04
-9.078534491912860540e+04
-9.077108172574106720e+04
-9.078234523636060476e+04
-9.077955245150288101e+04
-9.076733538729738211e+04
-9.072978235311925528e+04
-9.079420366543684213e+04
-9.079240614089892188e+04
-9.072243978796713054e+04
-9.073080730265109742e+04
-9.076676643034437438e+04
-9.073691326133301482e+04
-9.070761531743691012e+04
-9.076052694407185481e+04
-9.077384157120290911e+04
-9.078279496436375484e+04
-9.078019850798128755e+04
-9.078211679640089278e+04
-9.085228555382628110e+04
-9.075376053044760192e+04
-9.074158682499174029e+04
-9.076113829854683718e+04
-9.077121295280530467e+04
-9.077410017712289118e+04
-9.084217735899469699e+04
-9.079787638389793574e+04
-9.074207024046883453e+04
-9.076235219385164964e+04
-9.071531514453413547e+04
-9.070841110826203658e+04
-9.076398345970282389e+04
-9.078362824772496242e+04
-9.079615457850418170e+04
-9.074510750532228849e+04
-9.078612363858825120e+04
-9.080263454120059032e+04
-9.077524035442098102e+04
-9.075002510211551271e+04
-9.078813678300945321e+04
-9.073962824933808588e+04
-9.067000388247269439e+04
-9.076085935365548357e+04
-9.075480364210261905e+04
-9.077890249623107957e+04
-9.076969021608852199e+04
-9.078355259191484947e+04
-9.079610377920822066e+04
-9.075321162551656016e+04
-9.075526558558642864e+04
-9.080359318047118722e+04
-9.081580587574481615e+04
-9.067623142064685817e+04
-9.074724784345478110e+04
-9.073435030909143097e+04
-9.068844634749626857e+04
-9.071657743400566687e+04
-9.077963273087010020e+04
-9.081013773026199488e+04
-9.083554758929517993e+04
-9.078978175124661357e+04
-9.077757469716607011e+04
-9.081311973164381925e+04
-9.075704690590707469e+04
-9.071817843062414613e+04
-9.083374094857666933e+04
-9.082222232035777415e+04
-9.077564056039258139e+04
-9.076010856861520733e+04
-9.077223196227627341e+04
-9.076120083083558711e+04
-9.074624389637686545e+04
-9.080625251947209472e+04
-9.083816597840220493e+04
-9.085148322915197059e+04
-9.082199531893637322e+04
-9.078598513572689262e+04
-9.075965709991681797e+04
-9.078556880743285001e+04
-9.079794242892222246e+04
-9.074327942563919351e+04
-9.084231031507188163e+04
-9.082219190401943342e+04
-9.080252180033693730e+04
-9.080136313759688346e+04
-9.082790830102967448e+04
-9.083096775081830856e+04
-9.085665737032743345e+04
-9.087201148614924750e+04
-9.085047498037062178e+04
-9.087533997378044296e+04
-9.082493931146762043e+04
-9.082727796487108571e+04
-9.079404104195340187e+04
-9.081049522138123575e+04
-9.084287658902548719e+04
-9.080761978153313976e+04
-9.079084805552492617e+04
-9.079956730383526883e+04
-9.085835379741691577e+04
-9.085343694489783957e+04
-9.084148312589761917e+04
-9.087662968317157356e+04
-9.085721912595765025e+04
-9.078015411183724063e+04
-9.078557218423289305e+04
-9.085165833271546580e+04
-9.078164780558271741e+04
-9.086811290188970452e+04
-9.088400514771274175e+04
-9.080029238083619566e+04
-9.081454546531006054e+04
-9.079852056535839802e+04
-9.089275664663169300e+04
-9.085095598190861347e+04
-9.084851347082406573e+04
-9.097669895201470354e+04
-9.126198135956417536e+04
-9.100624936276373046e+04
-9.116529767886208720e+04
-9.133206759702316776e+04
-9.107409251011761080e+04
-9.079389143343095202e+04
-9.091458634310765774e+04
-9.087444997699346277e+04
-9.079926931771764066e+04
-9.086538774410886981e+04
-9.090940151585500280e+04
-9.091933076604333473e+04
-9.082248688924513408e+04
-9.078398823926139448e+04
-9.083317329788507777e+04
-9.081618508962368651e+04
-9.086289009233142133e+04
-9.088231052887048281e+04
-9.086309638976994029e+04
-9.085654565306138829e+04
-9.089671851436291763e+04
-9.082014054523986124e+04
-9.082077639150006871e+04
-9.084629268712174962e+04
-9.085913879095242009e+04
-9.087979265886994835e+04
-9.088216514222908881e+04
-9.092101965167220624e+04
-9.090921411747054663e+04
-9.089037073060557304e+04
-9.085896872988026007e+04
-9.088206719310978951e+04
-9.088555130964009732e+04
-9.089579002687212778e+04
-9.085769262899257592e+04
-9.084940371260097891e+04
-9.088079044718806108e+04
-9.084455015079582518e+04
-9.084892101298421039e+04
-9.094141118367874878e+04
-9.096343800650043704e+04
-9.091169942239862576e+04
-9.092209664873947622e+04
-9.095175076273006562e+04
-9.084064226667307958e+04
-9.082519362646750233e+04
-9.087118746231871773e+04
-9.090776358850018005e+04
-9.086795891070384823e+04
-9.088421037339938630e+04
-9.094738767638751597e+04
-9.090497144371017930e+04
-9.089237685856531607e+04
-9.092602806708611024e+04
-9.098999542376592581e+04
-9.088060924981313292e+04
-9.090065427367968368e+04
-9.090785150050205993e+04
-9.085322246433270629e+04
-9.086704425810926477e+04
-9.092128061742740101e+04
-9.092816433643880009e+04
-9.087684569491464936e+04
-9.091834961872115673e+04
-9.091370401591170230e+04
-9.090567747067099845e+04
-9.092953736257064156e+04
-9.096882265434879810e+04
-9.097750133330150857e+04
-9.087483303518491448e+04
-9.091975083170825383e+04
-9.092365586120048829e+04
-9.094791010909117176e+04
-9.090745678577046783e+04
-9.094310408294468652e+04
-9.094955145846575033e+04
-9.093255608580760600e+04
-9.091157673525277642e+04
-9.093029329233527824e+04
-9.101350754768514889e+04
-9.093683116133951989e+04
-9.086869543836028606e+04
-9.089871296527098457e+04
-9.095068670318739896e+04
-9.089224197296694911e+04
-9.088695305358298356e+04
-9.096270998359077203e+04
-9.088691598257605801e+04
-9.090773139887052821e+04
-9.088229564379743533e+04
-9.091421717152181373e+04
-9.092961730772149167e+04
-9.099949527142909938e+04
-9.087797244524293637e+04
-9.087281334188612527e+04
-9.096133465293224435e+04
-9.088395633168632048e+04
-9.091560470089393493e+04
-9.090225643097855209e+04
-9.096796348774466605e+04
-9.089951940182725957e+04
-9.100541609928262187e+04
-9.090167790179591975e+04
-9.093001384712246363e+04
-9.098382177094450162e+04
-9.093426355793880066e+04
-9.093273097196075832e+04
-9.095480492974867229e+04
-9.104885685710929101e+04
-9.098807060605839069e+04
-9.096913934276381042e+04
-9.088907368760231475e+04
-9.093714023711050686e+04
-9.101928916628558363e+04
-9.090366474684882269e+04
-9.098921490216317761e+04
-9.096451976480179292e+04
-9.104054698784500943e+04
-9.097537453074788209e+04
-9.093046772859987686e+04
-9.094398348441283451e+04
-9.100148455401262618e+04
-9.102294173464131018e+04
-9.084673128473472025e+04
-9.093694758780910342e+04
-9.099594182117014134e+04
-9.111074678402993595e+04
-9.094286929372447776e+04
-9.102139218554175750e+04
-9.129935589493921725e+04
-9.119263787796960969e+04
-9.109892001154363970e+04
-9.094601540844609553e+04
-9.083173388418089598e+04
-9.106709139556354785e+04
-9.108581776627879299e+04
-9.111367855042338488e+04
-9.160688717489271949e+04
-9.207920910085736250e+04
-9.116276605668340926e+04
-9.110197313079054584e+04
-9.107788025785624632e+04
-9.088402992565686873e+04
-9.071221914833900519e+04
-9.102081359976377280e+04
-9.113632073917175876e+04
-9.111688790401243023e+04
-9.103225960280942672e+04
-9.076149690269849089e+04
-9.098332132425995951e+04
-9.099684671768957924e+04
-9.100654607717513863e+04
-9.098654471948416904e+04
-9.100147766869467159e+04
-9.102886146688526787e+04
-9.096648788227859768e+04
-9.094063952059202711e+04
-9.095656898280874884e+04
-9.105767367066227598e+04
-9.101102137888486322e+04
-9.092304497245314997e+04
-9.100482318974207737e+04
-9.100328892911631556e+04
-9.103872605900770577e+04
-9.098328759587430977e+04
-9.105225997785045183e+04
-9.097713031078911445e+04
-9.098755478559641051e+04
-9.104127083037119883e+04
-9.097821978724485962e+04
-9.099647727693128400e+04
-9.102025410079746507e+04
-9.107509007862138969e+04
-9.098382317424820212e+04
-9.095753703469817992e+04
-9.099873652159552148e+04
-9.098489208310542745e+04
-9.098458423811057582e+04
-9.097743387965943839e+04
-9.107067407555307727e+04
-9.099376912241593527e+04
-9.101789313486876199e+04
-9.099298087780646165e+04
-9.101788625959173078e+04
-9.102144741277144931e+04
-9.102453525556201930e+04
-9.101882160456490237e+04
-9.099727852982869081e+04
-9.098126717464928515e+04
-9.101983531284416676e+04
-9.103573790380460559e+04
-9.105313858916187019e+04
-9.103467321691072721e+04
-9.106098885011189850e+04
-9.103259930693048227e+04
-9.106621646876192244e+04
-9.108101418031727371e+04
-9.109381261875566270e+04
-9.111411839904976659e+04
-9.103865319275694492e+04
-9.105302620090107666e+04
-9.099068822188935883e+04
-9.105693247401819099e+04
-9.103104928505962016e+04
-9.106326680678706907e+04
-9.103512321621910087e+04
-9.103724182942457264e+04
-9.104018582754749514e+04
-9.101904374213557458e+04
-9.105077806616145244e+04
-9.105234062200982589e+04
-9.110965432132381829e+04
-9.108990909357985947e+04
-9.108900758302613394e+04
-9.110908607797512377e+04
-9.103133753130582045e+04
-9.107762311926847906e+04
-9.104188182342420623e+04
-9.111847318542134599e+04
-9.112266844354484056e+04
-9.123853430656489218e+04
-9.112683524208189920e+04
-9.110898592370904225e+04
-9.111397679492205498e+04
-9.104892314793988771e+04
-9.096421380635458627e+04
-9.105899018997725216e+04
-9.113805334357166430e+04
-9.100972642181560514e+04
-9.096113720698004181e+04
-9.099486027667655435e+04
-9.101962122262422054e+04
-9.099932070241388283e+04
-9.108469011347136984e+04
-9.115148986261489335e+04
-9.116401042597107880e+04
-9.107486737135122530e+04
-9.103237274129923026e+04
-9.101228727118586539e+04
-9.110951709558250150e+04
-9.121215433706690965e+04
-9.103567986645163910e+04
-9.105687292374408571e+04
-9.107718804385827389e+04
-9.110332443088498258e+04
-9.109893226683088869e+04
-9.117106830348150106e+04
-9.120427794061184977e+04
-9.116705480774700118e+04
-9.106434859815084201e+04
-9.086184920386390877e+04
-9.114272118997455982e+04
-9.121131632634479320e+04
-9.138386822765790566e+04
-9.103383461472585623e+04
-9.070774507268735033e+04
-9.143996642336563673e+04
-9.147912185133856838e+04
-9.138922391782165505e+04
-9.205721173371681652e+04
-9.302332790095833479e+04
-9.153412537190546573e+04
-9.130610733226151206e+04
-9.130176068495064101e+04
-9.107750097037667001e+04
-9.071258902112423675e+04
-9.111923266208954738e+04
-9.128679563524045807e+04
-9.122011631382568157e+04
-9.115286712200657348e+04
-9.091395640713548346e+04
-9.118197693774630898e+04
-9.117157816397129500e+04
-9.118815375090058660e+04
-9.110966580492726644e+04
-9.101921661556817708e+04
-9.113373882552421128e+04
-9.113666509252143442e+04
-9.115648164834623458e+04
-9.114389717591805675e+04
-9.124447111197559570e+04
-9.117109950692282291e+04
-9.105302048286085483e+04
-9.106494972443158622e+04
-9.110011712097619602e+04
-9.120383053921208193e+04
-9.110302028013404924e+04
-9.116216783405687602e+04
-9.113451870276329282e+04
-9.114631246533595549e+04
-9.119205900057237886e+04
-9.112684643897101341e+04
-9.118720498114390648e+04
-9.119145061906654155e+04
-9.125234892129275249e+04
-9.113600952990289079e+04
-9.113145126360002905e+04
-9.110694329044449842e+04
-9.113818635593551153e+04
-9.111923034065861430e+04
-9.112684864739750628e+04
-9.121568345288296405e+04
-9.118905222880045767e+04
-9.116150572250875121e+04
-9.111966450067765254e+04
-9.112564440435075085e+04
-9.118395148653312935e+04
-9.119025517454017245e+04
-9.116940530338732060e+04
-9.113809253331295622e+04
-9.117307378690982296e+04
-9.110165377785520104e+04
-9.110310042028682074e+04
-9.111925628466908529e+04
-9.118305212266820308e+04
-9.115015249339348520e+04
-9.113674428335051925e+04
-9.116749087739801325e+04
-9.120832825832214439e+04
-9.117559731028544775e+04
-9.117962147845786239e+04
-9.119614769848606375e+04
-9.118922682549589081e+04
-9.118697518995859718e+04
-9.120776321646993165e+04
-9.120378322413739807e+04
-9.122624888710619416e+04
-9.121487530959697324e+04
-9.115809595829327009e+04
-9.113618809895885352e+04
-9.117328874531693873e+04
-9.116732809595462459e+04
-9.116831726633552171e+04
-9.119630029403821391e+04
-9.121668024816046818e+04
-9.118844472861872055e+04
-9.115160371010028757e+04
-9.119204410755615390e+04
-9.123335050624157884e+04
-9.123973342537238204e+04
-9.121584954398586706e+04
-9.129719637838573544e+04
-9.122108749059026013e+04
-9.116662691581816762e+04
-9.114782723155264102e+04
-9.119053801154912799e+04
-9.114038570368265209e+04
-9.119119534813691280e+04
-9.124409314199395885e+04
-9.123215552496914461e+04
-9.127044597079312371e+04
-9.124611453673655342e+04
-9.123920327480293054e+04
-9.120405858880242158e+04
-9.122515997996217629e+04
-9.118129228630712896e+04
-9.114416609447066730e+04
-9.123046537175257981e+04
-9.121041268960805610e+04
-9.122602831339457771e+04
-9.115647972205441329e+04
-9.126117285310459556e+04
-9.117600396450153494e+04
-9.118981796768921777e+04
-9.120396746133991110e+04
-9.119421159335976699e+04
-9.126050025572656887e+04
-9.119778933279731427e+04
-9.126405541733751306e+04
-9.123445948665194737e+04
-9.131241248503417592e+04
-9.115772518213796138e+04
-9.121479972985089989e+04
-9.122407533899658301e+04
-9.111116361613034678e+04
-9.120696784392102563e+04
-9.125730006755302020e+04
-9.130176473530865042e+04
-9.116629078703114646e+04
-9.120087207219563425e+04
-9.123457509350757755e+04
-9.119667084292547952e+04
-9.125996270889698644e+04
-9.129580148700752761e+04
-9.160994865927012870e+04
-9.132887103654393286e+04
-9.135236490090085135e+04
-9.124546617184598290e+04
-9.134804453844693489e+04
-9.111827488348846964e+04
-9.116134352966852020e+04
-9.123807009947237384e+04
-9.122654347665018577e+04
-9.121811665162528516e+04
-9.112521909282299748e+04
-9.123371261751945713e+04
-9.123165826075531368e+04
-9.126785287310880085e+04
-9.121006418089375074e+04
-9.119752918556149234e+04
-9.128427241051520105e+04
-9.120264689454347536e+04
-9.118646048294720822e+04
-9.116332763689308194e+04
-9.125489817804280028e+04
-9.119930310401204042e+04
-9.117062647041148739e+04
-9.119465316708483442e+04
-9.120651945389650064e+04
-9.126385201247401710e+04
-9.117769796936368220e+04
-9.123806902363020345e+04
-9.123826351904835610e+04
-9.124360178877346334e+04
-9.126584032593695156e+04
-9.123175252920285857e+04
-9.121379185475522536e+04
-9.126235832049278542e+04
-9.128014144119380217e+04
-9.113214355058525689e+04
-9.122225408449188399e+04
-9.124730845004395815e+04
-9.110933451138135570e+04
-9.115011360938308644e+04
-9.113986016742236097e+04
-9.118028312409178761e+04
-9.117886746347456938e+04
-9.125755807226605248e+04
-9.118920835305146466e+04
-9.127646839065969107e+04
-9.117861802453467681e+04
-9.115463871874917822e+04
-9.118093523550007376e+04
-9.119325169695932709e+04
-9.121295935162888782e+04
-9.122273584691688302e+04
-9.121028513818520878e+04
-9.117039610482308490e+04
-9.116774519633443560e+04
-9.112841933597036405e+04
-9.114536040980207326e+04
-9.120666764441647683e+04
-9.122660139453930606e+04
-9.123474919605441391e+04
-9.119852741742871876e+04
-9.121591762696683872e+04
-9.111341695689465269e+04
-9.114870387037275941e+04
-9.115347232869983418e+04
-9.116847489097752259e+04
-9.115778803037690523e+04
-9.121001878732995829e+04
-9.114714081369496125e+04
-9.111152374410908669e+04
-9.113672579708263220e+04
-9.112737451089236129e+04
-9.115889627784803452e+04
-9.113146164895474794e+04
-9.115311740084424673e+04
-9.116601048891626124e+04
-9.113752981225260010e+04
-9.109941070694115479e+04
-9.114429467386213946e+04
-9.119032005791265692e+04
-9.110816334916849155e+04
-9.112915070458519040e+04
-9.113902085148320475e+04
-9.115495861866432824e+04
-9.110233327686143457e+04
-9.114095086929222452e+04
-9.112705616815139365e+04
-9.108027072073261661e+04
-9.109126166455476778e+04
-9.107337455153530755e+04
-9.110229717344368692e+04
-9.110301201295590727e+04
-9.113953833896438300e+04
-9.110005302830290748e+04
-9.110465098553140706e+04
-9.106117961730265233e+04
-9.106807527862950519e+04
-9.111610956254338089e+04
-9.110334353874025692e+04
-9.111653665171089233e+04
-9.109934947103580635e+04
-9.113968085349923058e+04
-9.105003296504140599e+04
-9.106882590618982795e+04
-9.106060529641855101e+04
-9.111823015192577441e+04
-9.104140026296536962e+04
-9.105208203113047057e+04
-9.104566061839651957e+04
-9.106667816470011894e+04
-9.106041076722534490e+04
-9.102972433166443079e+04
-9.105512554995261598e+04
-9.107554583114301204e+04
-9.111179420055268565e+04
-9.106628103350277524e+04
-9.106513356692611706e+04
-9.110797788974572904e+04
-9.108310722405969864e+04
-9.098358417172502959e+04
-9.095433169667885522e+04
-9.108623139392351732e+04
-9.103691912619257346e+04
-9.102036977679490519e+04
-9.097701612483667850e+04
-9.098515995230113913e+04
-9.104856244915259595e+04
-9.098621321212020121e+04
-9.107196159593357879e+04
-9.129428145409999706e+04
-9.136124675070095691e+04
-9.105734958806994837e+04
-9.112068755559338024e+04
-9.105338799392536748e+04
-9.086223964649719710e+04
-9.089163366803864483e+04
-9.099120231511557358e+04
-9.099275392878569255e+04
-9.097072443290661613e+04
-9.099838061052716512e+04
-9.088402539020520635e+04
-9.093409255175599537e+04
-9.096180002692210837e+04
-9.093572060041398800e+04
-9.094608810698414163e+04
-9.095970190031688253e+04
-9.097166596854251111e+04
-9.092629851936994237e+04
-9.097774522120771871e+04
-9.099102461017320456e+04
-9.094046740060068259e+04
-9.093802632356523827e+04
-9.087851297443339718e+04
-9.088122703175671631e+04
-9.089357572724678903e+04
-9.094166715929325437e+04
-9.091418439814723388e+04
-9.092406164137652377e+04
-9.093093928594746103e+04
-9.084096686130316812e+04
-9.090906014888222853e+04
-9.087805188388038368e+04
-9.090339042943269305e+04
-9.085214590850999230e+04
-9.089928879347942711e+04
-9.087501477803286980e+04
-9.082407603082823334e+04
-9.086695261396648129e+04
-9.084589812028186861e+04
-9.085166317170319962e+04
-9.071197156575058762e+04
-9.078126657173818967e+04
-9.077340027024905430e+04
-9.079157764114953170e+04
-9.078985846143617528e+04
-9.085036263837058505e+04
-9.084836704805667978e+04
-9.077736269889098185e+04
-9.081149576573878585e+04
-9.078509701463252713e+04
-9.084324107135091617e+04
-9.082400286524475086e+04
-9.078921255415267660e+04
-9.077143457757704891e+04
-9.079275898679607781e+04
-9.073176865633591660e+04
-9.074827842601272278e+04
-9.082261809137175442e+04
-9.079506451069976902e+04
-9.081519305626142886e+04
-9.081562795782751346e+04
-9.073896932911023032e+04
-9.073178790979814949e+04
-9.077688354730821447e+04
-9.067471677952722530e+04
-9.072990302785084350e+04
-9.077790237174324284e+04
-9.076314452417305438e+04
-9.072258981241317815e+04
-9.077847997466129891e+04
-9.071590414218956721e+04
-9.072713078641994798e+04
-9.073697332408478542e+04
-9.071361111712369893e+04
-9.076151709576624853e+04
-9.073263338377742912e+04
-9.073746093639355968e+04
-9.071668805308964511e+04
-9.072543317444085551e+04
-9.072441218905235291e+04
-9.076549183099523361e+04
-9.074462695818125212e+04
-9.069620408027627855e+04
-9.074606338001134282e+04
-9.066451255716482410e+04
-9.068039951083384221e+04
-9.063649993509441265e+04
-9.068065353751019575e+04
-9.070148285462877539e+04
-9.072386315642537375e+04
-9.071155464499919617e+04
-9.069170735071897798e+04
-9.078018068650724308e+04
-9.071809292487351922e+04
-9.068744054291087377e+04
-9.066525912416404753e+04
-9.072503681383893127e+04
-9.061930214378262463e+04
-9.058062178122726618e+04
-9.066735410191518895e+04
-9.062458284873240336e+04
-9.064860399523568049e+04
-9.063944374275495647e+04
-9.063376665767913801e+04
-9.063707259737151617e+04
-9.065204323964931245e+04
-9.066868635807676765e+04
-9.061848851164389635e+04
-9.068157674391077308e+04
-9.057079321179381805e+04
-9.064827049454749795e+04
-9.054358048553278786e+04
-9.055454049038112862e+04
-9.057521416083192162e+04
-9.058966009494059836e+04
-9.056114102957710566e+04
-9.052492914148088312e+04
-9.063533967923378805e+04
-9.058693195459936396e+04
-9.062629545085894642e+04
-9.054746589993874659e+04
-9.046534731338302663e+04
-9.056685269623679051e+04
-9.060217953629011754e+04
-9.064268032659791061e+04
-9.061207578725348867e+04
-9.098409074925130699e+04
-9.074111269015599100e+04
-9.065371581606009568e+04
-9.060032176642201375e+04
-9.071905124324868666e+04
-9.051341147745004855e+04
-9.047920176801645721e+04
-9.052423296175782161e+04
-9.053987628292580484e+04
-9.056026652930463024e+04
-9.047723240058311785e+04
-9.056674191778749810e+04
-9.060872408235735202e+04
-9.056779510626547562e+04
-9.044142100571619812e+04
-9.045834505126292061e+04
-9.052375196403151494e+04
-9.047689951950436807e+04
-9.048154486325455946e+04
-9.051779253176624479e+04
-9.052278970508219209e+04
-9.048205877705854073e+04
-9.046463067286422302e+04
-9.050745681683694420e+04
-9.049793306127745018e+04
-9.050315955080720596e+04
-9.050927066527567513e+04
-9.053570559216005495e+04
-9.050955211810307810e+04
-9.050425504074853961e+04
-9.053812555639179482e+04
-9.046207132956667920e+04
-9.045978648634058482e+04
-9.044351587836889667e+04
-9.045623356927301211e+04
-9.046171033653573249e+04
-9.048761400151280395e+04
-9.048309293458107277e+04
-9.049237415241151757e+04
-9.052433870587979618e+04
-9.046024326748540625e+04
-9.049212722621671855e+04
-9.050652827743247326e+04
-9.048332480163313448e+04
-9.046196746406672173e+04
-9.049357512818751275e+04
-9.046612519937386969e+04
-9.042739708209192031e+04
-9.044653357345152472e+04
-9.041988073622154479e+04
-9.041844127248592849e+04
-9.045215437637291325e+04
-9.044812958917727519e+04
-9.049373729225959687e+04
-9.048304813801941054e+04
-9.045621752034538076e+04
-9.045223000503372168e+04
-9.046278208049245586e+04
-9.046652202261849015e+04
-9.046788735048961826e+04
-9.047827598833301454e+04
-9.038751273089750612e+04
-9.048997295555807068e+04
-9.038470840902191412e+04
-9.039122422147715406e+04
-9.040589263227595075e+04
-9.046997210454815649e+04
-9.037790270908969978e+04
-9.039179909016238526e+04
-9.044064272921030351e+04
-9.042600726204954844e+04
-9.045191930482645694e+04
-9.038395745699260442e+04
-9.041344416820882179e+04
-9.043156816869870818e+04
-9.040371293950741529e+04
-9.041542473574276664e+04
-9.045527172206819523e+04
-9.053506272451418045e+04
-9.037040455426230619e+04
-9.039926573931190069e+04
-9.034351457312048296e+04
-9.040819275299643050e+04
-9.035692003662830393e+04
-9.039937043356937647e+04
-9.042770800667929871e+04
-9.037952961640847207e+04
-9.037830900023797585e+04
-9.034392243892418628e+04
-9.043825496766426659e+04
-9.038774100196181098e+04
-9.043750717464626359e+04
-9.039311858765322540e+04
-9.034350714050834358e+04
-9.040380555286011077e+04
-9.036992660577548668e+04
-9.039703281433018856e+04
-9.039107218716319767e+04
-9.045095832998986589e+04
-9.033760989490585052e+04
-9.035931660679212655e+04
-9.037442864211663255e+04
-9.034048236324604659e+04
-9.038091814808214258e+04
-9.031494328344581299e+04
-9.035990888799732784e+04
-9.031116616012441227e+04
-9.037192721438032459e+04
-9.036221657394856447e+04
-9.036584962236834690e+04
-9.035906541554212163e+04
-9.031790653448381636e+04
-9.035050042320297507e+04
-9.036247688783980266e+04
-9.041881732111783640e+04
-9.037283668406125798e+04
-9.044816256751095352e+04
-9.036639153215366241e+04
-9.027534342369703518e+04
-9.041057784112334775e+04
-9.041725802445696900e+04
-9.037342278083333804e+04
-9.040725154784339247e+04
-9.031625940159165475e+04
-9.027189607518393314e+04
-9.030919024291694222e+04
-9.038224718196062895e+04
-9.038608287816090160e+04
-9.066017221301328391e+04
-9.042750297623175720e+04
-9.038126498236233601e+04
-9.033807053093040304e+04
-9.034846707868095837e+04
-9.028548471030587098e+04
-9.043256205883584335e+04
-9.041877207499362703e+04
-9.034379809904552530e+04
-9.033888530493451981e+04
-9.026402150148096553e+04
-9.030611797177049448e+04
-9.033001432501776435e+04
-9.032765575678714958e+04
-9.035184979643659608e+04
-9.032702992770505080e+04
-9.029469850283749111e+04
-9.032604457250902487e+04
-9.043298839443495672e+04
-9.034876186420673912e+04
-9.036093949852981314e+04
-9.032032628642456257e+04
-9.031446630574259325e+04
-9.034820092045170895e+04
-9.035816880250995746e+04
-9.034199275485190446e+04
-9.037557189782432397e+04
-9.039424987947523186e+04
-9.033693958447704790e+04
-9.039273167063081928e+04
-9.034427624336293957e+04
-9.046101653827106929e+04
-9.048191186518860923e+04
-9.042844588424592803e+04
-9.048087717616886948e+04
-9.069780529263713106e+04
-9.051576674534802441e+04
-9.022907561172431451e+04
-9.020482752728687774e+04
-9.034378384628286585e+04
-9.058104229399921314e+04
-9.067914069375298277e+04
-9.086124168441382062e+04
-9.077910863335405884e+04
-9.057770618607435608e+04
-9.023797472690360155e+04
-9.034495295773219550e+04
-9.083727490909650805e+04
-9.144308771926598274e+04
-9.141363976376499340e+04
-9.120350994048370922e+04
-9.099676557172602043e+04
-9.068063137460895814e+04
-9.057290970374183962e+04
-9.089363714418456948e+04
-9.104424027161490812e+04
-9.159004777422170446e+04
-9.168568500914065226e+04
-9.153906102974562964e+04
-9.126292754108761437e+04
-9.166532192583123106e+04
-9.170530086010840023e+04
-9.159874579202409950e+04
-9.103209264933929080e+04
-9.173109673550727894e+04
-9.213074641547627107e+04
-9.153917465925370925e+04
-9.164842777424518135e+04
-9.240193210846437432e+04
-9.164624955610552570e+04
-9.141062418476620223e+04
-9.154333445222255250e+04
-9.183857772920741991e+04
-9.191995529997347330e+04
-9.258217019902155153e+04
-9.201096904142964922e+04
-9.237026236964935379e+04
-9.161169068684581725e+04
-9.173879363470527460e+04
-9.150541751038252551e+04
-9.157726319906467688e+04
-9.155163351593445987e+04
-9.245904107615615067e+04
-9.207901847598831228e+04
-9.156055181431843084e+04
-9.173566555261482426e+04
-9.195242749067563273e+04
-9.151574811334800324e+04
-9.161424409655180352e+04
-9.208655578796505870e+04
-9.198168924254542799e+04
-9.197829996370196750e+04
-9.248419464881552267e+04
-9.200437677922360308e+04
-9.208380843780445866e+04
-9.315828720372522366e+04
-9.189006818280476728e+04
-9.099559278735078988e+04
-9.160660287779272767e+04
-9.156805238576931879e+04
-9.089008137557058944e+04
-9.179169945145242673e+04
-9.214124859577348980e+04
-9.193715229133155663e+04
-9.212534386699109746e+04
-9.133538484574803442e+04
-9.176460257579221798e+04
-9.177949097420358157e+04
-9.185835837898521277e+04
-9.146589861167610798e+04
-9.191265034396422561e+04
-9.191124753255811811e+04
-9.167770613342427532e+04
-9.174963176325170207e+04
-9.156443093641207088e+04
-9.167191949328598275e+04
-9.129800667081674328e+04
-9.213036107999506930e+04
-9.201011729856168677e+04
-9.197385918216052232e+04
-9.185327322084126354e+04
-9.129163865708597586e+04
-9.076320432106174121e+04
-9.082271046918885258e+04
-9.165483320038591046e+04
-9.212577543076963047e+04
-9.249030186659468745e+04
-9.212518614521549898e+04
-9.149032784124267346e+04
-9.099058908466465073e+04
-9.083588459257506474e+04
-9.092996780791961646e+04
-9.151497126069005753e+04
-9.210402259374110145e+04
-9.191048442065619747e+04
-9.175380366533920460e+04
-9.206367629485815996e+04
-9.115297647844726453e+04
-9.122258451284930925e+04
-9.143936335132594104e+04
-9.084399771031134878e+04
-9.105062993494614784e+04
-9.173634280527685769e+04
-9.164670650191519235e+04
-9.134574630370130762e+04
-9.174021200597732968e+04
-9.088785183789102302e+04
-9.102154989740301971e+04
-9.091280376841522229e+04
-9.115780039600977034e+04
-9.128970598628027074e+04
-9.113902219699253328e+04
-9.106657781908562174e+04
-9.085218999266042374e+04
-9.063767859328762279e+04
-9.116203618745756103e+04
-9.157478318675330956e+04
-9.102798671737940458e+04
-9.131723889268425410e+04
-9.148796503373066662e+04
-9.047549929714687460e+04
-9.068868450443935581e+04
-9.090554240191394638e+04
-9.060434969804035791e+04
-9.065556819731606811e+04
-9.094583740314630268e+04
-9.074620498781099741e+04
-9.068822490504528105e+04
-9.079486383870999271e+04
-9.057440211600088514e+04
-9.072808592245442560e+04
-9.072675044381798944e+04
-9.089547950543693150e+04
-9.088259623521051253e+04
-9.077567654662361019e+04
-9.059231879489983839e+04
-9.046219902848529455e+04
-9.051435168794263154e+04
-9.048538081829011207e+04
-9.056491491062325076e+04
-9.049584667235129746e+04
-9.036117941975574649e+04
-9.013175325229878945e+04
-9.021646576449685381e+04
-9.018891221667906211e+04
-9.037235029567146557e+04
-9.043957824679577607e+04
-9.020002257108585036e+04
-9.006083915002572758e+04
-9.005666151286945387e+04
-8.999493021732255875e+04
-8.999489808705370524e+04
-9.014130847727581568e+04
-8.999329631377111946e+04
-9.002675136837321043e+04
-8.979177981475715933e+04
-8.970795919190082350e+04
-8.980449220391777635e+04
-8.968653363724840165e+04
-8.957647907257027691e+04
-8.970124596845646738e+04
-8.981746387469636102e+04
-8.971519335828031763e+04
-8.991667283789819339e+04
-8.987229984576755669e+04
-8.962106090573024994e+04
-8.952788217371453356e+04
-8.951213245786596963e+04
-8.944890662809993955e+04
-8.921280026331212139e+04
-8.945686242735534324e+04
-8.930245551442548458e+04
-8.904915808723910595e+04
-8.923468078247830272e+04
-8.946101957634284918e+04
-8.930042071601157659e+04
-8.943107163888157811e+04
-8.968800529240192554e+04
-8.927256433100781578e+04
-8.938686290449592343e+04
-8.956814147337214672e+04
-8.928813861289143097e+04
-8.922336561610120407e+04
-8.935365114949554845e+04
-8.910661292504616722e+04
-8.888838269858446438e+04
-8.911907833633034898e+04
-8.918608631219106610e+04
-8.917878097806208825e+04
-8.934030299366747204e+04
-8.936689090245525585e+04
-8.948499142405446037e+04
-8.925356534487393219e+04
-8.930002739510196261e+04
-8.920098456064150378e+04
-8.932909178170969244e+04
-8.933024445756318164e+04
-8.938044779513349931e+04
-8.948226735599948734e+04
-8.949004280454193940e+04
-8.938544351012018160e+04
-8.923845694876452035e+04
-8.934491484184155706e+04
-8.924640047690623032e+04
-8.921736587714125926e+04
-8.924367308888705156e+04
-8.912171778453058505e+04
-8.921850064302622923e+04
-8.919521118887962075e+04
-8.935696523300970148e+04
-8.937271833627510932e+04
-8.927365387806712533e+04
-8.936804656597116264e+04
-8.943018353438630584e+04
-8.934152028050280933e+04
-8.945920981818471046e+04
-8.993830050376689178e+04
-8.954679403205715062e+04
-8.943727195382917125e+04
-8.937145703840990609e+04
-8.920122255351809144e+04
-8.912918417406226217e+04
-8.920771662392960570e+04
-8.929772879936241952e+04
-8.937002044112914882e+04
-8.938084361896803603e+04
-8.919677245755260810e+04
-8.929351762905897340e+04
-8.934033854617853649e+04
-8.938320271056612546e+04
-8.940644191034122196e+04
-8.927791142277509789e+04
-8.939189982743964356e+04
-8.928417895844315353e+04
-8.915916065962673747e+04
-8.926132504518282076e+04
-8.941944890362255683e+04
-8.929185814804397523e+04
-8.931013309832962113e+04
-8.935790756151165988e+04
-8.929889467278830125e+04
-8.924622353963824571e+04
-8.928070110513416876e+04
-8.931321993319474859e+04
-8.934649744969973108e+04
-8.923914829478127649e+04
-8.932511812677419221e+04
-8.933155316115848836e+04
-8.930051820361832506e+04
-8.930049947136269475e+04
-8.943126733117118420e+04
-8.940109021121155820e+04
-8.932458836503571365e+04
-8.934500267770134087e+04
-8.934558228473717463e+04
-8.930709508795625879e+04
-8.932108489786171413e+04
-8.931004119985447323e+04
-8.936098635550469044e+04
-8.929711339236545609e+04
-8.929763911090786860e+04
-8.928765811795176705e+04
-8.935632053762777650e+04
-8.926003174684688565e+04
-8.936775274194568919e+04
-8.938395079525288020e+04
-8.926657686054645455e+04
-8.935047789495729376e+04
-8.940325898671947652e+04
-8.930722519420804747e+04
-8.926315487104994827e+04
-8.939307520339316397e+04
-8.933101111485794536e+04
-8.931328955340235552e+04
-8.934887573928077472e+04
-8.941862888295865559e+04
-8.948092488791007781e+04
-8.940046013516391395e+04
-8.939749833143918659e+04
-8.944200570144287485e+04
-8.942911380519025261e+04
-8.933413440827754675e+04
-8.933850784691340232e+04
-8.936894761665079568e+04
-8.938160032551943732e+04
-8.938604197281859524e+04
-8.935878574728651438e+04
-8.941878201914788224e+04
-8.946204329301076359e+04
-8.941820446680214081e+04
-8.936955987393394753e+04
-8.937502663442492485e+04
-8.944893512606236618e+04
-8.940046771837236884e+04
-8.930762985256075626e+04
-8.934632659827418684e+04
-8.940549463584150362e+04
-8.933178715153638041e+04
-8.924645228893570311e+04
-8.938190881427795102e+04
-8.935743894921001629e+04
-8.936948263950618275e+04
-8.929383634188314318e+04
-8.935167323855543509e+04
-8.935316244371903304e+04
-8.937024515327467816e+04
-8.935661973523719644e+04
-8.938412407553370576e+04
-8.940282906388846459e+04
-8.932619778009175207e+04
-8.932434447890734009e+04
-8.930116307013462938e+04
-8.933238688430548063e+04
-8.936922739750701294e+04
-8.937671122542364174e+04
-8.944744196190657385e+04
-8.936348630408316967e+04
-8.941172083127326914e+04
-8.940348308966851619e+04
-8.943189195852320699e+04
-8.940104732154420344e+04
-8.946755247573841189e+04
-8.946553127993796079e+04
-8.938460671410473878e+04
-8.944513145130811608e+04
-8.934727732163050678e+04
-8.945067750952071219e+04
-8.942206607673344843e+04
-8.947140865810165997e+04
-8.948918867391507956e+04
-8.949162017139876843e+04
-8.947589340847426502e+04
-8.939950220527884085e+04
-8.945682101665785012e+04
-8.939472580490352993e+04
-8.954562491934777063e+04
-8.950141958550410345e+04
-8.959444266159406106e+04
-8.955711087634792784e+04
-8.936774891255817784e+04
-8.948459719988060533e+04
-8.948351577480070409e+04
-8.953441633996005112e+04
-8.956489912712259684e+04
-8.988100752631234354e+04
-8.965979386178983259e+04
-8.960249883919546846e+04
-8.954534430568771495e+04
-8.947205249803733022e+04
-8.945989659627330548e+04
-8.944695819063982344e+04
-8.950223031421288033e+04
-8.950757915283608600e+04
-8.956203599128266796e+04
-8.946209569666052994e+04
-8.947753622653623461e+04
-8.955261292919043626e+04
-8.950513442751906405e+04
-8.953098479940500692e+04
-8.949696030872817209e+04
-8.956096197912674688e+04
-8.953923043396956928e+04
-8.958887989731480775e+04
-8.956099352920371166e+04
-8.953481112437577394e+04
-8.959445733847701922e+04
-8.953000686620190390e+04
-8.952945807805500226e+04
-8.948346427377148939e+04
-8.957455313686015143e+04
-8.956733671067473188e+04
-8.956824465608368337e+04
-8.957880669000130729e+04
-8.962909921187312284e+04
-8.965433434993248375e+04
-8.957491873925330583e+04
-8.957654726334421139e+04
-8.956891331941925455e+04
-8.961528564852791897e+04
-8.958659578358216095e+04
-8.959278685965947807e+04
-8.967682858132943511e+04
-8.968388070108456304e+04
-8.961872071888516075e+04
-8.958881024938230985e+04
-8.960512674653713475e+04
-8.961413766442536144e+04
-8.960412334287010890e+04
-8.963275553930639580e+04
-8.967972678883340268e+04
-8.972701265664068342e+04
-8.964235114092887670e+04
-8.965494013875005476e+04
-8.961353338413040910e+04
-8.963016449605194794e+04
-8.963874953386744892e+04
-8.965330195982534497e+04
-8.964815057071977935e+04
-8.978197401173807157e+04
-8.968699094781021995e+04
-8.965332511068436725e+04
-8.969021601934218779e+04
-8.969681625232634542e+04
-8.954845920944436511e+04
-8.961390669347569929e+04
-8.962552778017276432e+04
-8.965009130788939365e+04
-8.961816746753167536e+04
-8.966047686699801125e+04
-8.969811330671038013e+04
-8.967459490720274334e+04
-8.960649979994626483e+04
-8.965552441928845656e+04
-8.965454423753850278e+04
-8.961208490280798287e+04
-8.961520930305587535e+04
-8.961479872791476373e+04
-8.961093567202599661e+04
-8.960157068103490747e+04
-8.959442493496954557e+04
-8.962804827779940388e+04
-8.969832859388105862e+04
-8.962391849039972294e+04
-8.967915524784341687e+04
-8.965941603751904040e+04
-8.961431958927851520e+04
-8.956188769350056828e+04
-8.962320460562681546e+04
-8.953909124391982914e+04
-8.953841195395955583e+04
-8.960679125177962123e+04
-8.958154848454715102e+04
-8.953986042236538196e+04
-8.959550482634025684e+04
-8.964133821949070261e+04
-8.957561503234363045e+04
-8.962035524619359057e+04
-8.962010707603867922e+04
-8.960693758270397666e+04
-8.961533082072513935e+04
-8.962505631516390713e+04
-8.962085742889740504e+04
-8.966363585868310474e+04
-8.965578190450678812e+04
-8.959818864788839710e+04
-8.960945355404427391e+04
-8.960532015547073388e+04
-8.962004223419020127e+04
-8.958553566554798454e+04
-8.962881218850630103e+04
-8.964317569802475919e+04
-8.964825225242764282e+04
-8.963171582582971314e+04
-8.964642219269336783e+04
-8.961677631799953815e+04
-8.959404044722636172e+04
-8.960283923151473573e+04
-8.956306140257470543e+04
-8.960393434759599040e+04
-8.959905241424156702e+04
-8.964312730290376930e+04
-8.961946312207792653e+04
-8.959675521244002448e+04
-8.960121086795152223e+04
-8.962889466814936895e+04
-8.963127657259043190e+04
-8.957572499239220633e+04
-8.953776148727851978e+04
-8.962823625141629600e+04
-8.969466640390540124e+04
-8.966289436568260135e+04
-8.977206311613378057e+04
-9.002967830780502118e+04
-8.975569109126500553e+04
-8.964617170787953364e+04
-8.963480980110519158e+04
-8.965571898544662690e+04
