-8.282900000000000000e+04
-8.753200000000000000e+04
-8.580300000000000000e+04
-7.978200000000000000e+04
-7.804000000000000000e+04
-8.270200000000000000e+04
-8.753300000000000000e+04
-8.576200000000000000e+04
-7.974700000000000000e+04
-7.809800000000000000e+04
-8.268500000000000000e+04
-8.748600000000000000e+04
-8.581200000000000000e+04
-7.980100000000000000e+04
-7.805400000000000000e+04
-8.262900000000000000e+04
-8.747600000000000000e+04
-8.585700000000000000e+04
-7.984200000000000000e+04
-7.806400000000000000e+04
-8.264100000000000000e+04
-8.752900000000000000e+04
-8.590400000000000000e+04
-7.984700000000000000e+04
-7.804400000000000000e+04
-8.258600000000000000e+04
-8.747600000000000000e+04
-8.593700000000000000e+04
-7.996600000000000000e+04
-7.809600000000000000e+04
-8.256900000000000000e+04
-8.753300000000000000e+04
-8.604600000000000000e+04
-7.999500000000000000e+04
-7.808000000000000000e+04
-8.251200000000000000e+04
-8.748400000000000000e+04
-8.607900000000000000e+04
-8.008900000000000000e+04
-7.812700000000000000e+04
-8.253500000000000000e+04
-8.754200000000000000e+04
-8.620200000000000000e+04
-8.014700000000000000e+04
-7.811100000000000000e+04
-8.247200000000000000e+04
-8.753000000000000000e+04
-8.618700000000000000e+04
-8.019100000000000000e+04
-7.809200000000000000e+04
-8.246400000000000000e+04
-8.749100000000000000e+04
-8.617800000000000000e+04
-8.023900000000000000e+04
-7.808700000000000000e+04
-8.233200000000000000e+04
-8.746600000000000000e+04
-8.625700000000000000e+04
-8.028700000000000000e+04
-7.810500000000000000e+04
-8.235800000000000000e+04
-8.747500000000000000e+04
-8.632700000000000000e+04
-8.037000000000000000e+04
-7.813300000000000000e+04
-8.227500000000000000e+04
-8.744900000000000000e+04
-8.635700000000000000e+04
-8.041500000000000000e+04
-7.808800000000000000e+04
-8.223900000000000000e+04
-8.744400000000000000e+04
-8.642900000000000000e+04
-8.048200000000000000e+04
-7.811200000000000000e+04
-8.222800000000000000e+04
-8.746400000000000000e+04
-8.652500000000000000e+04
-8.056800000000000000e+04
-7.810900000000000000e+04
-8.220500000000000000e+04
-8.743700000000000000e+04
-8.647900000000000000e+04
-8.053800000000000000e+04
-7.809400000000000000e+04
-8.210700000000000000e+04
-8.736500000000000000e+04
-8.648200000000000000e+04
-8.055600000000000000e+04
-7.803400000000000000e+04
-8.201300000000000000e+04
-8.729100000000000000e+04
-8.645900000000000000e+04
-8.054200000000000000e+04
-7.798400000000000000e+04
-8.192500000000000000e+04
-8.722600000000000000e+04
-8.645100000000000000e+04
-8.056600000000000000e+04
-7.794900000000000000e+04
-8.184600000000000000e+04
-8.716700000000000000e+04
-8.643900000000000000e+04
-8.053900000000000000e+04
-7.789200000000000000e+04
-8.175500000000000000e+04
-8.711200000000000000e+04
-8.643800000000000000e+04
-8.055400000000000000e+04
-7.780900000000000000e+04
-8.163600000000000000e+04
-8.703900000000000000e+04
-8.641400000000000000e+04
-8.053500000000000000e+04
-7.776500000000000000e+04
-8.155700000000000000e+04
-8.695700000000000000e+04
-8.636900000000000000e+04
-8.054100000000000000e+04
-7.772400000000000000e+04
-8.147100000000000000e+04
-8.692900000000000000e+04
-8.645300000000000000e+04
-8.054500000000000000e+04
-7.764200000000000000e+04
-8.134600000000000000e+04
-8.680700000000000000e+04
-8.634700000000000000e+04
-8.054700000000000000e+04
-7.761500000000000000e+04
-8.124700000000000000e+04
-8.672200000000000000e+04
-8.633000000000000000e+04
-8.055200000000000000e+04
-7.757100000000000000e+04
-8.113700000000000000e+04
-8.662900000000000000e+04
-8.630000000000000000e+04
-8.046100000000000000e+04
-7.743600000000000000e+04
-8.105100000000000000e+04
-8.644100000000000000e+04
-8.613400000000000000e+04
-8.039800000000000000e+04
-7.733700000000000000e+04
-8.082100000000000000e+04
-8.634800000000000000e+04
-8.610900000000000000e+04
-8.035800000000000000e+04
-7.722800000000000000e+04
-8.069100000000000000e+04
-8.622100000000000000e+04
-8.600700000000000000e+04
-8.024400000000000000e+04
-7.707900000000000000e+04
-8.050600000000000000e+04
-8.603900000000000000e+04
-8.588300000000000000e+04
-8.016100000000000000e+04
-7.694200000000000000e+04
-8.033000000000000000e+04
-8.594000000000000000e+04
-8.583800000000000000e+04
-8.012400000000000000e+04
-7.688100000000000000e+04
-8.023100000000000000e+04
-8.581100000000000000e+04
-8.581900000000000000e+04
-8.012200000000000000e+04
-7.681300000000000000e+04
-8.013600000000000000e+04
-8.575600000000000000e+04
-8.580600000000000000e+04
-8.009400000000000000e+04
-7.679600000000000000e+04
-8.007100000000000000e+04
-8.570200000000000000e+04
-8.579600000000000000e+04
-8.016000000000000000e+04
-7.678100000000000000e+04
-8.003200000000000000e+04
-8.567200000000000000e+04
-8.574100000000000000e+04
-8.012700000000000000e+04
-7.668400000000000000e+04
-7.981000000000000000e+04
-8.546100000000000000e+04
-8.561900000000000000e+04
-8.004400000000000000e+04
-7.659800000000000000e+04
-7.961900000000000000e+04
-8.527500000000000000e+04
-8.556900000000000000e+04
-8.000400000000000000e+04
-7.647400000000000000e+04
-7.955700000000000000e+04
-8.526300000000000000e+04
-8.557600000000000000e+04
-8.000700000000000000e+04
-7.638700000000000000e+04
-7.943000000000000000e+04
-8.511100000000000000e+04
-8.544500000000000000e+04
-7.995300000000000000e+04
-7.634200000000000000e+04
-7.929400000000000000e+04
-8.501900000000000000e+04
-8.540800000000000000e+04
-7.991500000000000000e+04
-7.627900000000000000e+04
-7.922700000000000000e+04
-8.489600000000000000e+04
-8.532600000000000000e+04
-7.984500000000000000e+04
-7.615800000000000000e+04
-7.906700000000000000e+04
-8.480700000000000000e+04
-8.528900000000000000e+04
-7.986900000000000000e+04
-7.611500000000000000e+04
-7.896400000000000000e+04
-8.470200000000000000e+04
-8.525700000000000000e+04
-7.985900000000000000e+04
-7.609700000000000000e+04
-7.887100000000000000e+04
-8.455600000000000000e+04
-8.518200000000000000e+04
-7.982100000000000000e+04
-7.601600000000000000e+04
-7.871300000000000000e+04
-8.442400000000000000e+04
-8.505400000000000000e+04
-7.970200000000000000e+04
-7.582800000000000000e+04
-7.850300000000000000e+04
-8.425800000000000000e+04
-8.498100000000000000e+04
-7.964200000000000000e+04
-7.572900000000000000e+04
-7.838100000000000000e+04
-8.412500000000000000e+04
-8.487900000000000000e+04
-7.960100000000000000e+04
-7.565700000000000000e+04
-7.831400000000000000e+04
-8.406300000000000000e+04
-8.486600000000000000e+04
-7.959500000000000000e+04
-7.563100000000000000e+04
-7.818200000000000000e+04
-8.395400000000000000e+04
-8.484900000000000000e+04
-7.963400000000000000e+04
-7.561900000000000000e+04
-7.813100000000000000e+04
-5.392800000000000000e+04
-5.119000000000000000e+04
-4.555200000000000000e+04
-4.505900000000000000e+04
-5.011600000000000000e+04
-5.395200000000000000e+04
-5.129700000000000000e+04
-4.566900000000000000e+04
-4.495800000000000000e+04
-4.999000000000000000e+04
-5.392700000000000000e+04
-5.119600000000000000e+04
-4.551900000000000000e+04
-4.498600000000000000e+04
-4.999300000000000000e+04
-5.387200000000000000e+04
-5.126600000000000000e+04
-4.556400000000000000e+04
-4.496400000000000000e+04
-4.998600000000000000e+04
-5.388100000000000000e+04
-5.126200000000000000e+04
-4.556600000000000000e+04
-4.495600000000000000e+04
-4.994000000000000000e+04
-5.390300000000000000e+04
-5.130900000000000000e+04
-4.559800000000000000e+04
-4.496600000000000000e+04
-4.981400000000000000e+04
-5.378600000000000000e+04
-5.127600000000000000e+04
-4.559400000000000000e+04
-4.491700000000000000e+04
-4.995200000000000000e+04
-5.396900000000000000e+04
-5.129300000000000000e+04
-4.556400000000000000e+04
-4.487700000000000000e+04
-5.000200000000000000e+04
-5.394800000000000000e+04
-5.133400000000000000e+04
-4.564400000000000000e+04
-4.478400000000000000e+04
-4.968900000000000000e+04
-5.376700000000000000e+04
-5.132600000000000000e+04
-4.563400000000000000e+04
-4.483300000000000000e+04
-4.963700000000000000e+04
-5.370100000000000000e+04
-5.142900000000000000e+04
-4.564700000000000000e+04
-4.475400000000000000e+04
-4.964900000000000000e+04
-5.373400000000000000e+04
-5.134400000000000000e+04
-4.557000000000000000e+04
-4.471900000000000000e+04
-4.957600000000000000e+04
-5.370500000000000000e+04
-5.137100000000000000e+04
-4.566400000000000000e+04
-4.489300000000000000e+04
-4.960500000000000000e+04
-5.375900000000000000e+04
-5.134200000000000000e+04
-4.558600000000000000e+04
-4.463200000000000000e+04
-4.944000000000000000e+04
-5.364300000000000000e+04
-5.133700000000000000e+04
-4.559300000000000000e+04
-4.470600000000000000e+04
-4.946800000000000000e+04
-5.363700000000000000e+04
-5.133600000000000000e+04
-4.559200000000000000e+04
-4.463200000000000000e+04
-4.942900000000000000e+04
-5.366500000000000000e+04
-5.140600000000000000e+04
-4.565200000000000000e+04
-4.473000000000000000e+04
-4.945700000000000000e+04
-5.357900000000000000e+04
-5.141500000000000000e+04
-4.563700000000000000e+04
-4.457200000000000000e+04
-4.934800000000000000e+04
-5.361600000000000000e+04
-5.145800000000000000e+04
-4.569600000000000000e+04
-4.458100000000000000e+04
-4.930600000000000000e+04
-5.361200000000000000e+04
-5.143400000000000000e+04
-4.568200000000000000e+04
-4.458200000000000000e+04
-4.930700000000000000e+04
-5.355700000000000000e+04
-5.146900000000000000e+04
-4.569900000000000000e+04
-4.450700000000000000e+04
-4.920100000000000000e+04
-5.356700000000000000e+04
-5.148100000000000000e+04
-4.570900000000000000e+04
-4.455100000000000000e+04
-4.919400000000000000e+04
-5.354900000000000000e+04
-5.151200000000000000e+04
-4.570600000000000000e+04
-4.450200000000000000e+04
-4.921000000000000000e+04
-5.365400000000000000e+04
-5.156900000000000000e+04
-4.578500000000000000e+04
-4.442800000000000000e+04
-4.904200000000000000e+04
-5.346800000000000000e+04
-5.152300000000000000e+04
-4.575300000000000000e+04
-4.446700000000000000e+04
-4.910100000000000000e+04
-5.351300000000000000e+04
-5.156700000000000000e+04
-4.578200000000000000e+04
-4.442800000000000000e+04
-4.904500000000000000e+04
-5.352900000000000000e+04
-5.161400000000000000e+04
-4.581000000000000000e+04
-4.445100000000000000e+04
-4.900700000000000000e+04
-5.346400000000000000e+04
-5.157900000000000000e+04
-4.580300000000000000e+04
-4.442700000000000000e+04
-4.900400000000000000e+04
-5.343900000000000000e+04
-5.158700000000000000e+04
-4.580300000000000000e+04
-4.436900000000000000e+04
-4.889400000000000000e+04
-5.346200000000000000e+04
-5.163400000000000000e+04
-4.582700000000000000e+04
-4.440100000000000000e+04
-4.893300000000000000e+04
-5.342400000000000000e+04
-5.168300000000000000e+04
-4.588300000000000000e+04
-4.432400000000000000e+04
-4.884100000000000000e+04
-5.345700000000000000e+04
-5.171600000000000000e+04
-4.587200000000000000e+04
-4.432700000000000000e+04
-4.884500000000000000e+04
-5.345900000000000000e+04
-5.165800000000000000e+04
-4.590100000000000000e+04
-4.432300000000000000e+04
-4.877400000000000000e+04
-5.343900000000000000e+04
-5.176700000000000000e+04
-4.597100000000000000e+04
-4.436000000000000000e+04
-4.875700000000000000e+04
-5.344600000000000000e+04
-5.174100000000000000e+04
-4.595300000000000000e+04
-4.431900000000000000e+04
-4.873600000000000000e+04
-5.338700000000000000e+04
-5.180900000000000000e+04
-4.603200000000000000e+04
-4.425600000000000000e+04
-4.871600000000000000e+04
-5.343600000000000000e+04
-5.183500000000000000e+04
-4.595100000000000000e+04
-4.424700000000000000e+04
-4.862000000000000000e+04
-5.334700000000000000e+04
-5.182200000000000000e+04
-4.604100000000000000e+04
-4.423400000000000000e+04
-4.857100000000000000e+04
-5.335200000000000000e+04
-5.185600000000000000e+04
-4.605200000000000000e+04
-4.425200000000000000e+04
-4.858700000000000000e+04
-5.336400000000000000e+04
-5.191500000000000000e+04
-4.611600000000000000e+04
-4.422400000000000000e+04
-4.853400000000000000e+04
-5.337900000000000000e+04
-5.197000000000000000e+04
-4.606200000000000000e+04
-4.419400000000000000e+04
-4.850400000000000000e+04
-5.332500000000000000e+04
-5.190100000000000000e+04
-4.616200000000000000e+04
-4.418700000000000000e+04
-4.846700000000000000e+04
-5.333700000000000000e+04
-5.193400000000000000e+04
-4.614600000000000000e+04
-4.420700000000000000e+04
-4.843700000000000000e+04
-5.333700000000000000e+04
-5.203500000000000000e+04
-4.621900000000000000e+04
-4.412100000000000000e+04
-4.833200000000000000e+04
-5.325100000000000000e+04
-5.200600000000000000e+04
-4.623700000000000000e+04
-4.417300000000000000e+04
-4.833400000000000000e+04
-5.329000000000000000e+04
-5.204100000000000000e+04
-4.625900000000000000e+04
-4.420000000000000000e+04
-4.837000000000000000e+04
-5.337900000000000000e+04
-5.211100000000000000e+04
-4.620400000000000000e+04
-4.412600000000000000e+04
-4.828700000000000000e+04
-5.327200000000000000e+04
-5.208100000000000000e+04
-4.629800000000000000e+04
-4.412600000000000000e+04
-4.827000000000000000e+04
-5.324600000000000000e+04
-5.212100000000000000e+04
-4.637200000000000000e+04
-4.416200000000000000e+04
-4.817200000000000000e+04
-5.321100000000000000e+04
-5.212700000000000000e+04
-4.641300000000000000e+04
-4.420900000000000000e+04
-4.815600000000000000e+04
-5.312600000000000000e+04
-5.212100000000000000e+04
-4.638600000000000000e+04
-4.407700000000000000e+04
-4.809600000000000000e+04
-5.316300000000000000e+04
-5.217800000000000000e+04
-4.649900000000000000e+04
-4.428400000000000000e+04
-4.829900000000000000e+04
-5.317800000000000000e+04
-5.214900000000000000e+04
-4.639400000000000000e+04
-4.408200000000000000e+04
-4.806400000000000000e+04
-5.319000000000000000e+04
-5.219900000000000000e+04
-4.638100000000000000e+04
-4.406200000000000000e+04
-4.805100000000000000e+04
-5.315900000000000000e+04
-5.220700000000000000e+04
-4.648900000000000000e+04
-4.406800000000000000e+04
-4.801000000000000000e+04
-5.312700000000000000e+04
-5.222500000000000000e+04
-4.647100000000000000e+04
-4.405200000000000000e+04
-4.799200000000000000e+04
-5.312800000000000000e+04
-5.217400000000000000e+04
-4.647100000000000000e+04
-4.407100000000000000e+04
-4.796200000000000000e+04
-5.310100000000000000e+04
-5.223100000000000000e+04
-4.652300000000000000e+04
-4.405900000000000000e+04
-4.794500000000000000e+04
-5.321400000000000000e+04
-5.234700000000000000e+04
-4.660900000000000000e+04
-4.405000000000000000e+04
-4.784400000000000000e+04
-5.305600000000000000e+04
-5.230700000000000000e+04
-4.666500000000000000e+04
-4.403100000000000000e+04
-4.783200000000000000e+04
-5.303300000000000000e+04
-5.234300000000000000e+04
-4.670500000000000000e+04
-4.408700000000000000e+04
-4.783100000000000000e+04
-5.303000000000000000e+04
-5.234600000000000000e+04
-4.667200000000000000e+04
-4.406200000000000000e+04
-4.781600000000000000e+04
-5.305700000000000000e+04
-5.242400000000000000e+04
-4.671400000000000000e+04
-4.407100000000000000e+04
-4.778900000000000000e+04
-5.303600000000000000e+04
-5.243600000000000000e+04
-4.677400000000000000e+04
-4.408100000000000000e+04
-4.778600000000000000e+04
-5.303100000000000000e+04
-5.245100000000000000e+04
-4.677400000000000000e+04
-4.408100000000000000e+04
-4.780700000000000000e+04
-5.304500000000000000e+04
-5.242300000000000000e+04
-4.675600000000000000e+04
-4.402500000000000000e+04
-4.766200000000000000e+04
-5.299800000000000000e+04
-5.249800000000000000e+04
-4.681200000000000000e+04
-4.404800000000000000e+04
-4.768200000000000000e+04
-5.298700000000000000e+04
-5.252700000000000000e+04
-4.693100000000000000e+04
-4.409100000000000000e+04
-4.767300000000000000e+04
-5.296700000000000000e+04
-5.250200000000000000e+04
-4.693000000000000000e+04
-4.405300000000000000e+04
-4.761100000000000000e+04
-5.296900000000000000e+04
-5.259100000000000000e+04
-4.701600000000000000e+04
-4.407700000000000000e+04
-4.756600000000000000e+04
-5.290400000000000000e+04
-5.255600000000000000e+04
-4.700700000000000000e+04
-4.409400000000000000e+04
-4.758600000000000000e+04
-5.297600000000000000e+04
-5.262600000000000000e+04
-4.695700000000000000e+04
-4.403300000000000000e+04
-4.754000000000000000e+04
-5.291700000000000000e+04
-5.260700000000000000e+04
-4.710900000000000000e+04
-4.411300000000000000e+04
-4.748000000000000000e+04
-5.289600000000000000e+04
-5.266100000000000000e+04
-4.716900000000000000e+04
-4.409600000000000000e+04
-4.748400000000000000e+04
-5.295000000000000000e+04
-5.281600000000000000e+04
-4.712600000000000000e+04
-4.406100000000000000e+04
-4.741400000000000000e+04
-5.285800000000000000e+04
-5.274700000000000000e+04
-4.724200000000000000e+04
-4.409100000000000000e+04
-4.745600000000000000e+04
-5.293400000000000000e+04
-5.285000000000000000e+04
-4.720700000000000000e+04
-4.402600000000000000e+04
-4.739400000000000000e+04
-5.284700000000000000e+04
-5.299100000000000000e+04
-4.757100000000000000e+04
-4.415700000000000000e+04
-4.740600000000000000e+04
-5.288100000000000000e+04
-5.283100000000000000e+04
-4.735100000000000000e+04
-4.417700000000000000e+04
-4.743300000000000000e+04
-5.288600000000000000e+04
-5.277300000000000000e+04
-4.733600000000000000e+04
-4.412700000000000000e+04
-4.735200000000000000e+04
-5.285900000000000000e+04
-5.288000000000000000e+04
-4.743400000000000000e+04
-4.423400000000000000e+04
-4.739200000000000000e+04
-5.284000000000000000e+04
-5.293600000000000000e+04
-4.753000000000000000e+04
-4.415900000000000000e+04
-4.725100000000000000e+04
-5.281900000000000000e+04
-5.290800000000000000e+04
-4.748900000000000000e+04
-4.418400000000000000e+04
-4.736100000000000000e+04
-5.286100000000000000e+04
-5.293900000000000000e+04
-4.755600000000000000e+04
-4.421700000000000000e+04
-4.738500000000000000e+04
-5.294100000000000000e+04
-5.299700000000000000e+04
-4.750600000000000000e+04
-4.420700000000000000e+04
-4.731600000000000000e+04
-5.284600000000000000e+04
-5.302600000000000000e+04
-4.765400000000000000e+04
-4.428600000000000000e+04
-4.735200000000000000e+04
-5.290700000000000000e+04
-5.309600000000000000e+04
-4.769500000000000000e+04
-4.426000000000000000e+04
-4.733500000000000000e+04
-5.288400000000000000e+04
-5.311600000000000000e+04
-4.780600000000000000e+04
-4.427700000000000000e+04
-4.723900000000000000e+04
-5.281700000000000000e+04
-5.313200000000000000e+04
-4.775800000000000000e+04
-4.429800000000000000e+04
-4.732000000000000000e+04
-5.288600000000000000e+04
-5.318800000000000000e+04
-4.780700000000000000e+04
-4.425600000000000000e+04
-4.724700000000000000e+04
-5.280800000000000000e+04
-5.318500000000000000e+04
-4.786100000000000000e+04
-4.430400000000000000e+04
-4.725800000000000000e+04
-5.282400000000000000e+04
-5.321400000000000000e+04
-4.795800000000000000e+04
-4.440800000000000000e+04
-4.722700000000000000e+04
-5.274200000000000000e+04
-5.320800000000000000e+04
-4.795100000000000000e+04
-4.435300000000000000e+04
-4.719200000000000000e+04
-5.277600000000000000e+04
-5.331200000000000000e+04
-4.812600000000000000e+04
-4.434400000000000000e+04
-4.714300000000000000e+04
-5.279200000000000000e+04
-5.330700000000000000e+04
-4.808300000000000000e+04
-4.445900000000000000e+04
-4.722100000000000000e+04
-5.277200000000000000e+04
-5.329100000000000000e+04
-4.810700000000000000e+04
-4.440000000000000000e+04
-4.716200000000000000e+04
-5.280700000000000000e+04
-5.337200000000000000e+04
-4.816600000000000000e+04
-4.440600000000000000e+04
-4.715000000000000000e+04
-5.276600000000000000e+04
-5.339900000000000000e+04
-4.822900000000000000e+04
-4.443000000000000000e+04
-4.715600000000000000e+04
-5.282100000000000000e+04
-5.338800000000000000e+04
-4.825100000000000000e+04
-4.443800000000000000e+04
-4.705100000000000000e+04
-5.270600000000000000e+04
-5.346500000000000000e+04
-4.836200000000000000e+04
-4.452700000000000000e+04
-4.710200000000000000e+04
-5.270700000000000000e+04
-5.350100000000000000e+04
-4.834900000000000000e+04
-4.447200000000000000e+04
-4.710700000000000000e+04
-5.278900000000000000e+04
-5.349200000000000000e+04
-4.838500000000000000e+04
-4.452300000000000000e+04
-4.703400000000000000e+04
-5.268500000000000000e+04
-5.352200000000000000e+04
-4.847600000000000000e+04
-4.455200000000000000e+04
-4.730100000000000000e+04
-5.283700000000000000e+04
-5.360000000000000000e+04
-4.850700000000000000e+04
-4.462200000000000000e+04
-4.709400000000000000e+04
-5.262700000000000000e+04
-5.355900000000000000e+04
-4.849200000000000000e+04
-4.453000000000000000e+04
-4.702000000000000000e+04
-5.269300000000000000e+04
-5.364100000000000000e+04
-4.859400000000000000e+04
-4.458300000000000000e+04
-4.704700000000000000e+04
-5.268600000000000000e+04
-5.368100000000000000e+04
-4.866400000000000000e+04
-4.457500000000000000e+04
-4.698400000000000000e+04
-5.263400000000000000e+04
-5.367200000000000000e+04
-4.872500000000000000e+04
-4.458900000000000000e+04
-4.694200000000000000e+04
-5.260900000000000000e+04
-5.367500000000000000e+04
-4.871500000000000000e+04
-4.463400000000000000e+04
-4.699200000000000000e+04
-5.263300000000000000e+04
-5.368700000000000000e+04
-4.872900000000000000e+04
-4.465700000000000000e+04
-4.691800000000000000e+04
-5.259200000000000000e+04
-5.373400000000000000e+04
-4.874100000000000000e+04
-4.460800000000000000e+04
-4.689200000000000000e+04
-5.259600000000000000e+04
-5.376600000000000000e+04
-4.881200000000000000e+04
-4.465600000000000000e+04
-4.693700000000000000e+04
-5.258700000000000000e+04
-5.372700000000000000e+04
-4.884600000000000000e+04
-4.458200000000000000e+04
-4.687200000000000000e+04
-5.257800000000000000e+04
-5.374800000000000000e+04
-4.885700000000000000e+04
-4.460100000000000000e+04
-4.682800000000000000e+04
-5.253000000000000000e+04
-5.380000000000000000e+04
-4.896400000000000000e+04
-4.466400000000000000e+04
-4.683600000000000000e+04
-5.253700000000000000e+04
-5.383600000000000000e+04
-4.899600000000000000e+04
-4.469600000000000000e+04
-4.682400000000000000e+04
-5.256600000000000000e+04
-5.377700000000000000e+04
-4.898200000000000000e+04
-4.467200000000000000e+04
-4.679200000000000000e+04
-5.251200000000000000e+04
-5.389700000000000000e+04
-4.904400000000000000e+04
-4.469900000000000000e+04
-4.673700000000000000e+04
-5.246800000000000000e+04
-5.388900000000000000e+04
-4.910600000000000000e+04
-4.471100000000000000e+04
-4.678500000000000000e+04
-5.250600000000000000e+04
-5.389800000000000000e+04
-4.919700000000000000e+04
-4.473200000000000000e+04
-4.673200000000000000e+04
-5.240200000000000000e+04
-5.388500000000000000e+04
-4.920300000000000000e+04
-4.474400000000000000e+04
-4.672300000000000000e+04
-5.240400000000000000e+04
-5.392900000000000000e+04
-4.923100000000000000e+04
-4.475400000000000000e+04
-4.672500000000000000e+04
-5.240700000000000000e+04
-5.392600000000000000e+04
-4.926400000000000000e+04
-4.478400000000000000e+04
-4.669800000000000000e+04
-5.242600000000000000e+04
-5.407000000000000000e+04
-4.933100000000000000e+04
-4.484000000000000000e+04
-4.667100000000000000e+04
-5.234100000000000000e+04
-5.391900000000000000e+04
-4.932000000000000000e+04
-4.478600000000000000e+04
-4.664800000000000000e+04
-5.236300000000000000e+04
-5.400600000000000000e+04
-4.944600000000000000e+04
-4.490300000000000000e+04
-4.659100000000000000e+04
-5.230200000000000000e+04
-5.400200000000000000e+04
-4.944500000000000000e+04
-4.486700000000000000e+04
-4.656300000000000000e+04
-5.228500000000000000e+04
-5.403900000000000000e+04
-4.952000000000000000e+04
-4.490000000000000000e+04
-4.657200000000000000e+04
-5.226000000000000000e+04
-5.408200000000000000e+04
-4.973100000000000000e+04
-4.501200000000000000e+04
-4.685900000000000000e+04
-5.235200000000000000e+04
-5.409900000000000000e+04
-4.949300000000000000e+04
-4.484300000000000000e+04
-4.651700000000000000e+04
-5.223700000000000000e+04
-5.409600000000000000e+04
-4.958900000000000000e+04
-4.487900000000000000e+04
-4.654900000000000000e+04
-5.225800000000000000e+04
-5.411300000000000000e+04
-4.966200000000000000e+04
-4.499600000000000000e+04
-4.650700000000000000e+04
-5.218100000000000000e+04
-5.415300000000000000e+04
-4.966900000000000000e+04
-4.489700000000000000e+04
-4.651600000000000000e+04
-5.221300000000000000e+04
-5.415200000000000000e+04
-4.971600000000000000e+04
-4.496100000000000000e+04
-4.653500000000000000e+04
-5.226400000000000000e+04
-5.426000000000000000e+04
-4.972400000000000000e+04
-4.497200000000000000e+04
-4.654600000000000000e+04
-5.212400000000000000e+04
-5.420400000000000000e+04
-4.981300000000000000e+04
-4.495500000000000000e+04
-4.645400000000000000e+04
-5.215400000000000000e+04
-5.419100000000000000e+04
-4.983400000000000000e+04
-4.501900000000000000e+04
-4.650000000000000000e+04
-5.213500000000000000e+04
-5.417300000000000000e+04
-4.985600000000000000e+04
-4.501200000000000000e+04
-4.644900000000000000e+04
-5.220200000000000000e+04
-5.426000000000000000e+04
-4.983100000000000000e+04
-4.501000000000000000e+04
-4.641300000000000000e+04
-5.208700000000000000e+04
-5.421600000000000000e+04
-4.996600000000000000e+04
-4.504900000000000000e+04
-4.636000000000000000e+04
-5.208000000000000000e+04
-5.425200000000000000e+04
-4.998200000000000000e+04
-4.505800000000000000e+04
-4.642200000000000000e+04
-5.206600000000000000e+04
-5.424800000000000000e+04
-5.003800000000000000e+04
-4.509700000000000000e+04
-4.641000000000000000e+04
-5.200100000000000000e+04
-5.420300000000000000e+04
-5.007500000000000000e+04
-4.514200000000000000e+04
-4.624800000000000000e+04
-5.196900000000000000e+04
-5.427100000000000000e+04
-5.007700000000000000e+04
-4.511400000000000000e+04
-4.633500000000000000e+04
-5.198600000000000000e+04
-5.425900000000000000e+04
-5.012900000000000000e+04
-4.510300000000000000e+04
-4.629900000000000000e+04
-5.198300000000000000e+04
-5.432600000000000000e+04
-5.015400000000000000e+04
-4.515900000000000000e+04
-4.638100000000000000e+04
-5.189900000000000000e+04
-5.422300000000000000e+04
-5.018700000000000000e+04
-4.512800000000000000e+04
-4.626500000000000000e+04
-5.193100000000000000e+04
-5.431000000000000000e+04
-5.020100000000000000e+04
-4.517700000000000000e+04
-4.624900000000000000e+04
-5.186600000000000000e+04
-5.433500000000000000e+04
-5.031200000000000000e+04
-4.519200000000000000e+04
-4.623400000000000000e+04
-5.183700000000000000e+04
-5.436600000000000000e+04
-5.035400000000000000e+04
-4.526800000000000000e+04
-4.614800000000000000e+04
-5.175700000000000000e+04
-5.432800000000000000e+04
-5.035100000000000000e+04
-4.521100000000000000e+04
-4.619400000000000000e+04
-5.182100000000000000e+04
-5.438400000000000000e+04
-5.037900000000000000e+04
-4.525300000000000000e+04
-4.619700000000000000e+04
-5.177700000000000000e+04
-5.435200000000000000e+04
-5.042900000000000000e+04
-4.525600000000000000e+04
-4.620400000000000000e+04
-5.180500000000000000e+04
-5.434000000000000000e+04
-5.047700000000000000e+04
-4.525200000000000000e+04
-4.616200000000000000e+04
-5.203700000000000000e+04
-5.447900000000000000e+04
-5.047800000000000000e+04
-4.531700000000000000e+04
-4.616700000000000000e+04
-5.173100000000000000e+04
-5.442100000000000000e+04
-5.053200000000000000e+04
-4.533100000000000000e+04
-4.615200000000000000e+04
-5.173700000000000000e+04
-5.443900000000000000e+04
-5.058700000000000000e+04
-4.541700000000000000e+04
-4.621200000000000000e+04
-5.170100000000000000e+04
-5.447000000000000000e+04
-5.055900000000000000e+04
-4.533000000000000000e+04
-4.613100000000000000e+04
-5.167600000000000000e+04
-5.444600000000000000e+04
-5.064900000000000000e+04
-4.538200000000000000e+04
-4.615700000000000000e+04
-5.168600000000000000e+04
-5.443800000000000000e+04
-5.066900000000000000e+04
-4.545700000000000000e+04
-4.609100000000000000e+04
-5.161900000000000000e+04
-5.448100000000000000e+04
-5.073900000000000000e+04
-4.544800000000000000e+04
-4.609600000000000000e+04
-5.164700000000000000e+04
-5.451200000000000000e+04
-5.077400000000000000e+04
-4.548200000000000000e+04
-4.612500000000000000e+04
-5.168400000000000000e+04
-5.449500000000000000e+04
-5.077600000000000000e+04
-4.549600000000000000e+04
-4.611700000000000000e+04
-5.160200000000000000e+04
-5.450800000000000000e+04
-5.086400000000000000e+04
-4.550100000000000000e+04
-4.609100000000000000e+04
-5.158700000000000000e+04
-5.446500000000000000e+04
-5.088700000000000000e+04
-4.550400000000000000e+04
-4.605500000000000000e+04
-5.156300000000000000e+04
-5.452600000000000000e+04
-5.092900000000000000e+04
-4.556400000000000000e+04
-4.606900000000000000e+04
-5.154400000000000000e+04
-5.453900000000000000e+04
-5.094400000000000000e+04
-4.555900000000000000e+04
-4.607700000000000000e+04
-5.149400000000000000e+04
-5.450000000000000000e+04
-5.098600000000000000e+04
-4.557700000000000000e+04
-4.601100000000000000e+04
-5.150100000000000000e+04
-5.458400000000000000e+04
-5.109200000000000000e+04
-4.565200000000000000e+04
-4.603800000000000000e+04
-5.141900000000000000e+04
-5.453400000000000000e+04
-5.107400000000000000e+04
-4.563200000000000000e+04
-4.598700000000000000e+04
-5.145400000000000000e+04
-5.456100000000000000e+04
-5.112800000000000000e+04
-4.566200000000000000e+04
-4.606200000000000000e+04
-5.147000000000000000e+04
-5.453700000000000000e+04
-5.113800000000000000e+04
-4.563900000000000000e+04
-4.594100000000000000e+04
-5.140900000000000000e+04
-5.460500000000000000e+04
-5.120300000000000000e+04
-4.569200000000000000e+04
-4.586000000000000000e+04
-5.134900000000000000e+04
-5.459800000000000000e+04
-5.130200000000000000e+04
-4.576600000000000000e+04
-4.592900000000000000e+04
-5.116700000000000000e+04
-5.459400000000000000e+04
-5.142700000000000000e+04
-4.588600000000000000e+04
-4.598600000000000000e+04
-5.135500000000000000e+04
-5.468600000000000000e+04
-5.132300000000000000e+04
-4.577100000000000000e+04
-4.600400000000000000e+04
-5.139400000000000000e+04
-5.470500000000000000e+04
-5.148500000000000000e+04
-4.577000000000000000e+04
-4.588800000000000000e+04
-5.132700000000000000e+04
-5.459600000000000000e+04
-5.135900000000000000e+04
-4.586900000000000000e+04
-4.596100000000000000e+04
-5.117600000000000000e+04
-5.466200000000000000e+04
-5.136800000000000000e+04
-4.581700000000000000e+04
-4.563300000000000000e+04
-5.104100000000000000e+04
-5.457900000000000000e+04
-5.130000000000000000e+04
-4.617700000000000000e+04
-4.612400000000000000e+04
-5.124700000000000000e+04
-5.472200000000000000e+04
-5.154900000000000000e+04
-4.607600000000000000e+04
-4.584600000000000000e+04
-5.105700000000000000e+04
-5.474600000000000000e+04
-5.190900000000000000e+04
-4.612500000000000000e+04
-4.577300000000000000e+04
-5.096900000000000000e+04
-5.455100000000000000e+04
-5.177500000000000000e+04
-4.599200000000000000e+04
-4.555700000000000000e+04
-5.075200000000000000e+04
-5.446200000000000000e+04
-5.191000000000000000e+04
-4.606700000000000000e+04
-4.545700000000000000e+04
-5.088000000000000000e+04
-5.486500000000000000e+04
-5.210200000000000000e+04
-4.609100000000000000e+04
-4.526600000000000000e+04
-5.076600000000000000e+04
-5.503200000000000000e+04
-5.214800000000000000e+04
-4.639300000000000000e+04
-4.583900000000000000e+04
-5.120600000000000000e+04
-5.546200000000000000e+04
-5.271100000000000000e+04
-4.679300000000000000e+04
-4.644000000000000000e+04
-5.197000000000000000e+04
-5.633600000000000000e+04
-5.348600000000000000e+04
-4.725400000000000000e+04
-4.704900000000000000e+04
-5.243500000000000000e+04
-5.682400000000000000e+04
-5.407600000000000000e+04
-4.776300000000000000e+04
-4.722600000000000000e+04
-5.268800000000000000e+04
-5.702700000000000000e+04
-5.433100000000000000e+04
-4.848600000000000000e+04
-4.770200000000000000e+04
-5.322500000000000000e+04
-5.749100000000000000e+04
-5.503800000000000000e+04
-4.896300000000000000e+04
-4.780700000000000000e+04
-5.341900000000000000e+04
-5.836100000000000000e+04
-5.568600000000000000e+04
-4.973400000000000000e+04
-4.843400000000000000e+04
-5.330700000000000000e+04
-5.778600000000000000e+04
-5.555100000000000000e+04
-4.948700000000000000e+04
-4.847700000000000000e+04
-5.388200000000000000e+04
-5.811700000000000000e+04
-5.529900000000000000e+04
-4.949300000000000000e+04
-4.880700000000000000e+04
-5.391400000000000000e+04
-5.829300000000000000e+04
-5.580900000000000000e+04
-4.956800000000000000e+04
-4.833000000000000000e+04
-5.369400000000000000e+04
-5.813100000000000000e+04
-5.556100000000000000e+04
-4.930800000000000000e+04
-4.830100000000000000e+04
-5.359100000000000000e+04
-5.811400000000000000e+04
-5.564400000000000000e+04
-4.939900000000000000e+04
-4.841700000000000000e+04
-5.373000000000000000e+04
-5.844700000000000000e+04
-5.617900000000000000e+04
-4.983600000000000000e+04
-4.888300000000000000e+04
-5.410500000000000000e+04
-5.858100000000000000e+04
-5.615000000000000000e+04
-5.008800000000000000e+04
-4.892600000000000000e+04
-5.404400000000000000e+04
-5.870900000000000000e+04
-5.617100000000000000e+04
-5.001200000000000000e+04
-4.904700000000000000e+04
-5.421300000000000000e+04
-5.857700000000000000e+04
-5.611400000000000000e+04
-4.991700000000000000e+04
-4.882200000000000000e+04
-5.405000000000000000e+04
-5.860300000000000000e+04
-5.625700000000000000e+04
-5.000900000000000000e+04
-4.886700000000000000e+04
-5.394700000000000000e+04
-5.863600000000000000e+04
-5.637200000000000000e+04
-5.012500000000000000e+04
-4.872300000000000000e+04
-5.403400000000000000e+04
-5.870800000000000000e+04
-5.650800000000000000e+04
-5.032500000000000000e+04
-4.904200000000000000e+04
-5.411700000000000000e+04
-5.875700000000000000e+04
-5.647900000000000000e+04
-5.018500000000000000e+04
-4.891600000000000000e+04
-5.405000000000000000e+04
-5.902900000000000000e+04
-5.699200000000000000e+04
-5.030700000000000000e+04
-4.907500000000000000e+04
-5.407400000000000000e+04
-5.882200000000000000e+04
-5.667600000000000000e+04
-5.032400000000000000e+04
-4.898700000000000000e+04
-5.420700000000000000e+04
-5.887200000000000000e+04
-5.661800000000000000e+04
-5.038100000000000000e+04
-4.905800000000000000e+04
-5.411600000000000000e+04
-5.879800000000000000e+04
-5.676700000000000000e+04
-5.044700000000000000e+04
-4.895400000000000000e+04
-5.401900000000000000e+04
-5.883400000000000000e+04
-5.676600000000000000e+04
-5.062400000000000000e+04
-4.901800000000000000e+04
-5.389100000000000000e+04
-5.877700000000000000e+04
-5.698400000000000000e+04
-5.074200000000000000e+04
-4.890800000000000000e+04
-5.374600000000000000e+04
-5.886900000000000000e+04
-5.719200000000000000e+04
-5.076200000000000000e+04
-4.892100000000000000e+04
-5.394800000000000000e+04
-5.883400000000000000e+04
-5.714200000000000000e+04
-5.089700000000000000e+04
-4.891500000000000000e+04
-5.363900000000000000e+04
-5.888100000000000000e+04
-5.727100000000000000e+04
-5.092400000000000000e+04
-4.894600000000000000e+04
-5.372100000000000000e+04
-5.895400000000000000e+04
-5.733800000000000000e+04
-5.093500000000000000e+04
-4.899600000000000000e+04
-5.373600000000000000e+04
-5.898400000000000000e+04
-5.732500000000000000e+04
-5.092500000000000000e+04
-4.899700000000000000e+04
-5.368900000000000000e+04
-5.898600000000000000e+04
-5.742600000000000000e+04
-5.109100000000000000e+04
-4.906900000000000000e+04
-5.370700000000000000e+04
-5.894900000000000000e+04
-5.751300000000000000e+04
-5.109100000000000000e+04
-4.891800000000000000e+04
-5.363400000000000000e+04
-5.886600000000000000e+04
-5.740700000000000000e+04
-5.112800000000000000e+04
-4.905400000000000000e+04
-5.350600000000000000e+04
-5.881600000000000000e+04
-5.742600000000000000e+04
-5.103600000000000000e+04
-4.891900000000000000e+04
-5.366400000000000000e+04
-5.892600000000000000e+04
-5.748100000000000000e+04
-5.118400000000000000e+04
-4.907900000000000000e+04
-5.353200000000000000e+04
-5.886800000000000000e+04
-5.749500000000000000e+04
-5.123000000000000000e+04
-4.904400000000000000e+04
-5.354500000000000000e+04
-5.891400000000000000e+04
-5.757700000000000000e+04
-5.111600000000000000e+04
-4.892900000000000000e+04
-5.341900000000000000e+04
-5.890000000000000000e+04
-5.767200000000000000e+04
-5.129300000000000000e+04
-4.897900000000000000e+04
-5.356000000000000000e+04
-5.878800000000000000e+04
-5.756200000000000000e+04
-5.135300000000000000e+04
-4.897400000000000000e+04
-5.337600000000000000e+04
-5.882200000000000000e+04
-5.774100000000000000e+04
-5.139600000000000000e+04
-4.898900000000000000e+04
-5.341400000000000000e+04
-5.884200000000000000e+04
-5.773100000000000000e+04
-5.144200000000000000e+04
-4.894400000000000000e+04
-5.337300000000000000e+04
-5.886700000000000000e+04
-5.778000000000000000e+04
-5.141100000000000000e+04
-4.896700000000000000e+04
-5.338400000000000000e+04
-5.880000000000000000e+04
-5.769400000000000000e+04
-5.148600000000000000e+04
-4.907500000000000000e+04
-5.345000000000000000e+04
-5.880000000000000000e+04
-5.768700000000000000e+04
-5.140100000000000000e+04
-4.885700000000000000e+04
-5.327300000000000000e+04
-5.901700000000000000e+04
-5.815100000000000000e+04
-5.157700000000000000e+04
-4.910000000000000000e+04
-5.309900000000000000e+04
-5.887600000000000000e+04
-5.787100000000000000e+04
-5.123000000000000000e+04
-4.861700000000000000e+04
-5.254500000000000000e+04
-5.794100000000000000e+04
-5.709100000000000000e+04
-5.085400000000000000e+04
-4.840900000000000000e+04
-5.282100000000000000e+04
-5.833200000000000000e+04
-5.732600000000000000e+04
-5.114200000000000000e+04
-4.832200000000000000e+04
-5.248600000000000000e+04
-5.794400000000000000e+04
-5.668400000000000000e+04
-5.034800000000000000e+04
-4.765700000000000000e+04
-5.183100000000000000e+04
-5.715700000000000000e+04
-5.640100000000000000e+04
-5.032700000000000000e+04
-4.745200000000000000e+04
-5.162800000000000000e+04
-5.707900000000000000e+04
-5.618700000000000000e+04
-4.977900000000000000e+04
-4.721500000000000000e+04
-5.134900000000000000e+04
-5.658600000000000000e+04
-5.569400000000000000e+04
-4.968200000000000000e+04
-4.692600000000000000e+04
-5.097400000000000000e+04
-5.654700000000000000e+04
-5.583000000000000000e+04
-4.978200000000000000e+04
-4.713300000000000000e+04
-5.113500000000000000e+04
-5.653300000000000000e+04
-5.579300000000000000e+04
-4.978900000000000000e+04
-4.710800000000000000e+04
-5.096100000000000000e+04
-5.630600000000000000e+04
-5.561200000000000000e+04
-4.957400000000000000e+04
-4.681400000000000000e+04
-5.075800000000000000e+04
-5.630700000000000000e+04
-5.559200000000000000e+04
-4.979100000000000000e+04
-4.687800000000000000e+04
-5.063700000000000000e+04
-5.610800000000000000e+04
-5.542100000000000000e+04
-4.950700000000000000e+04
-4.686100000000000000e+04
-5.065900000000000000e+04
-5.600700000000000000e+04
-5.539700000000000000e+04
-4.941500000000000000e+04
-4.663800000000000000e+04
-5.047400000000000000e+04
-5.598600000000000000e+04
-5.547600000000000000e+04
-4.948200000000000000e+04
-4.663100000000000000e+04
-5.032900000000000000e+04
-5.579200000000000000e+04
-5.527100000000000000e+04
-4.945800000000000000e+04
-4.664700000000000000e+04
-5.025500000000000000e+04
-5.554700000000000000e+04
-5.517600000000000000e+04
-4.934900000000000000e+04
-4.646700000000000000e+04
-5.014100000000000000e+04
-5.559100000000000000e+04
-5.495600000000000000e+04
-4.921300000000000000e+04
-4.651900000000000000e+04
-5.031600000000000000e+04
-5.554900000000000000e+04
-5.491100000000000000e+04
-4.916800000000000000e+04
-4.653600000000000000e+04
-5.031000000000000000e+04
-5.558800000000000000e+04
-5.493100000000000000e+04
-4.908100000000000000e+04
-4.640500000000000000e+04
-5.016600000000000000e+04
-5.544900000000000000e+04
-5.489700000000000000e+04
-4.903600000000000000e+04
-4.629700000000000000e+04
-4.994200000000000000e+04
-5.532000000000000000e+04
-5.471400000000000000e+04
-4.897900000000000000e+04
-4.619700000000000000e+04
-4.986700000000000000e+04
-5.525700000000000000e+04
-5.477000000000000000e+04
-4.893600000000000000e+04
-4.613200000000000000e+04
-4.981200000000000000e+04
-5.519000000000000000e+04
-5.473400000000000000e+04
-4.900200000000000000e+04
-4.615100000000000000e+04
-4.973600000000000000e+04
-5.501100000000000000e+04
-5.462800000000000000e+04
-4.889300000000000000e+04
-4.604000000000000000e+04
-4.976400000000000000e+04
-5.500900000000000000e+04
-5.451600000000000000e+04
-4.887600000000000000e+04
-4.602100000000000000e+04
-4.954500000000000000e+04
-5.495400000000000000e+04
-5.504600000000000000e+04
-4.910400000000000000e+04
-4.591500000000000000e+04
-4.951200000000000000e+04
-5.492600000000000000e+04
-5.452200000000000000e+04
-4.883900000000000000e+04
-4.591700000000000000e+04
-4.934700000000000000e+04
-5.477600000000000000e+04
-5.445900000000000000e+04
-4.884400000000000000e+04
-4.581400000000000000e+04
-4.930200000000000000e+04
-5.474400000000000000e+04
-5.455200000000000000e+04
-4.900200000000000000e+04
-4.584700000000000000e+04
-4.928900000000000000e+04
-5.470200000000000000e+04
-5.446100000000000000e+04
-4.883700000000000000e+04
-4.576200000000000000e+04
-4.927900000000000000e+04
-5.466600000000000000e+04
-5.430100000000000000e+04
-4.872900000000000000e+04
-4.571700000000000000e+04
-4.925800000000000000e+04
-5.473300000000000000e+04
-5.435900000000000000e+04
-4.871400000000000000e+04
-4.579300000000000000e+04
-4.916600000000000000e+04
-5.446000000000000000e+04
-5.432800000000000000e+04
-4.882400000000000000e+04
-4.570100000000000000e+04
-4.904700000000000000e+04
-5.451100000000000000e+04
-5.428800000000000000e+04
-4.874100000000000000e+04
-4.562600000000000000e+04
-4.896900000000000000e+04
-5.445100000000000000e+04
-5.430100000000000000e+04
-4.873900000000000000e+04
-4.554100000000000000e+04
-4.887300000000000000e+04
-5.435200000000000000e+04
-5.423000000000000000e+04
-4.861200000000000000e+04
-4.537500000000000000e+04
-4.849500000000000000e+04
-5.384600000000000000e+04
-5.370200000000000000e+04
-4.816700000000000000e+04
-4.488500000000000000e+04
-4.821400000000000000e+04
-5.387900000000000000e+04
-5.393900000000000000e+04
-4.841700000000000000e+04
-4.526100000000000000e+04
-4.855600000000000000e+04
-5.409600000000000000e+04
-5.411300000000000000e+04
-4.861600000000000000e+04
-4.535700000000000000e+04
-4.857200000000000000e+04
-5.410600000000000000e+04
-5.422900000000000000e+04
-4.860100000000000000e+04
-4.528700000000000000e+04
-4.856700000000000000e+04
-5.405800000000000000e+04
-5.398300000000000000e+04
-4.848600000000000000e+04
-4.523700000000000000e+04
-4.844200000000000000e+04
-5.397200000000000000e+04
-5.406200000000000000e+04
-4.856900000000000000e+04
-4.520600000000000000e+04
-4.832400000000000000e+04
-5.390300000000000000e+04
-5.404100000000000000e+04
-4.855700000000000000e+04
-4.523600000000000000e+04
-4.836000000000000000e+04
-5.380300000000000000e+04
-5.397400000000000000e+04
-4.851000000000000000e+04
-4.511100000000000000e+04
-4.825700000000000000e+04
-5.379700000000000000e+04
-5.399100000000000000e+04
-4.849100000000000000e+04
-4.508400000000000000e+04
-4.820100000000000000e+04
-5.374900000000000000e+04
-5.393700000000000000e+04
-4.854100000000000000e+04
-4.508800000000000000e+04
-4.809000000000000000e+04
-5.365200000000000000e+04
-5.390400000000000000e+04
-4.849400000000000000e+04
-4.505100000000000000e+04
-4.803400000000000000e+04
-5.367600000000000000e+04
-5.392300000000000000e+04
-4.847200000000000000e+04
-4.497400000000000000e+04
-4.802200000000000000e+04
-5.354100000000000000e+04
-5.390000000000000000e+04
-4.851400000000000000e+04
-4.497400000000000000e+04
-4.797100000000000000e+04
-5.361000000000000000e+04
-5.393900000000000000e+04
-4.844800000000000000e+04
-4.496400000000000000e+04
-4.790700000000000000e+04
-5.345100000000000000e+04
-5.387900000000000000e+04
-4.852200000000000000e+04
-4.496900000000000000e+04
-4.800900000000000000e+04
-5.377400000000000000e+04
-5.391400000000000000e+04
-4.853200000000000000e+04
-4.491400000000000000e+04
-4.777200000000000000e+04
-5.346700000000000000e+04
-5.391900000000000000e+04
-4.855200000000000000e+04
-4.486500000000000000e+04
-4.777100000000000000e+04
-5.339600000000000000e+04
-5.389500000000000000e+04
-4.865200000000000000e+04
-4.482600000000000000e+04
-4.767200000000000000e+04
-5.333500000000000000e+04
-5.385600000000000000e+04
-4.853800000000000000e+04
-4.484200000000000000e+04
-4.765100000000000000e+04
-5.332600000000000000e+04
-5.390400000000000000e+04
-4.853600000000000000e+04
-4.476700000000000000e+04
-4.760400000000000000e+04
-5.330400000000000000e+04
-5.387400000000000000e+04
-4.855500000000000000e+04
-4.488900000000000000e+04
-4.748400000000000000e+04
-5.312200000000000000e+04
-5.379700000000000000e+04
-4.853900000000000000e+04
-4.475200000000000000e+04
-4.748700000000000000e+04
-5.316700000000000000e+04
-5.381800000000000000e+04
-4.858500000000000000e+04
-4.481300000000000000e+04
-4.751300000000000000e+04
-5.311200000000000000e+04
-5.381100000000000000e+04
-4.858100000000000000e+04
-4.477500000000000000e+04
-4.744200000000000000e+04
-5.319000000000000000e+04
-5.397400000000000000e+04
-4.855600000000000000e+04
-4.473100000000000000e+04
-4.736200000000000000e+04
-5.303400000000000000e+04
-5.378700000000000000e+04
-4.860400000000000000e+04
-4.473900000000000000e+04
-4.735700000000000000e+04
-5.302200000000000000e+04
-5.383900000000000000e+04
-4.866400000000000000e+04
-4.477400000000000000e+04
-4.731900000000000000e+04
-5.304700000000000000e+04
-5.380200000000000000e+04
-4.866500000000000000e+04
-4.477900000000000000e+04
-4.728900000000000000e+04
-5.293100000000000000e+04
-5.377400000000000000e+04
-4.867200000000000000e+04
-4.473700000000000000e+04
-4.723200000000000000e+04
-5.289700000000000000e+04
-5.386900000000000000e+04
-4.868300000000000000e+04
-4.469700000000000000e+04
-4.718200000000000000e+04
-5.284000000000000000e+04
-5.377900000000000000e+04
-4.868700000000000000e+04
-4.469800000000000000e+04
-4.719700000000000000e+04
-5.287600000000000000e+04
-5.374100000000000000e+04
-4.869000000000000000e+04
-4.467200000000000000e+04
-4.709600000000000000e+04
-5.277700000000000000e+04
-5.378100000000000000e+04
-4.874500000000000000e+04
-4.469900000000000000e+04
-4.709000000000000000e+04
-5.284700000000000000e+04
-5.382500000000000000e+04
-4.872600000000000000e+04
-4.467600000000000000e+04
-4.712700000000000000e+04
-5.283600000000000000e+04
-5.371600000000000000e+04
-4.875600000000000000e+04
-4.465900000000000000e+04
-4.697700000000000000e+04
-5.268800000000000000e+04
-5.378700000000000000e+04
-4.878200000000000000e+04
-4.468200000000000000e+04
-4.700100000000000000e+04
-5.265300000000000000e+04
-5.376100000000000000e+04
-4.883100000000000000e+04
-4.464600000000000000e+04
-4.692200000000000000e+04
-5.262400000000000000e+04
-5.379700000000000000e+04
-4.893300000000000000e+04
-4.466200000000000000e+04
-4.692200000000000000e+04
-5.257000000000000000e+04
-5.376500000000000000e+04
-4.889200000000000000e+04
-4.474500000000000000e+04
-4.686900000000000000e+04
-5.260200000000000000e+04
-5.377300000000000000e+04
-4.886900000000000000e+04
-4.465800000000000000e+04
-4.684900000000000000e+04
-5.253600000000000000e+04
-5.384300000000000000e+04
-4.921100000000000000e+04
-4.512900000000000000e+04
-4.724700000000000000e+04
-5.314200000000000000e+04
-5.445600000000000000e+04
-4.937700000000000000e+04
-4.484500000000000000e+04
-4.676500000000000000e+04
-5.245700000000000000e+04
-5.376300000000000000e+04
-4.895400000000000000e+04
-4.467700000000000000e+04
-4.676000000000000000e+04
-5.251600000000000000e+04
-5.409900000000000000e+04
-4.921500000000000000e+04
-4.474700000000000000e+04
-4.677400000000000000e+04
-5.252900000000000000e+04
-5.382700000000000000e+04
-4.899400000000000000e+04
-4.458700000000000000e+04
-4.669300000000000000e+04
-5.241700000000000000e+04
-5.379200000000000000e+04
-4.905500000000000000e+04
-4.469600000000000000e+04
-4.669100000000000000e+04
-5.242100000000000000e+04
-5.382200000000000000e+04
-4.907400000000000000e+04
-4.467100000000000000e+04
-4.671100000000000000e+04
-5.239100000000000000e+04
-5.385000000000000000e+04
-4.901400000000000000e+04
-4.468100000000000000e+04
-4.672200000000000000e+04
-5.245100000000000000e+04
-5.377800000000000000e+04
-4.902900000000000000e+04
-4.466500000000000000e+04
-4.660500000000000000e+04
-5.232600000000000000e+04
-5.385300000000000000e+04
-4.912400000000000000e+04
-4.468200000000000000e+04
-4.668900000000000000e+04
-5.239700000000000000e+04
-5.381700000000000000e+04
-4.910600000000000000e+04
-4.464200000000000000e+04
-4.653200000000000000e+04
-5.224700000000000000e+04
-5.381800000000000000e+04
-4.914500000000000000e+04
-4.470700000000000000e+04
-4.659600000000000000e+04
-5.229100000000000000e+04
-5.380200000000000000e+04
-4.912900000000000000e+04
-4.467300000000000000e+04
-4.645100000000000000e+04
-5.219700000000000000e+04
-5.386500000000000000e+04
-4.916900000000000000e+04
-4.469000000000000000e+04
-4.648700000000000000e+04
-5.220200000000000000e+04
-5.387700000000000000e+04
-4.929100000000000000e+04
-4.473900000000000000e+04
-4.646700000000000000e+04
-5.216600000000000000e+04
-5.390700000000000000e+04
-4.938900000000000000e+04
-4.479900000000000000e+04
-4.639600000000000000e+04
-5.214100000000000000e+04
-5.390400000000000000e+04
-4.936100000000000000e+04
-4.480000000000000000e+04
-4.647200000000000000e+04
-5.213800000000000000e+04
-5.388100000000000000e+04
-4.938400000000000000e+04
-4.476300000000000000e+04
-4.642300000000000000e+04
-5.208800000000000000e+04
-5.393200000000000000e+04
-4.944300000000000000e+04
-4.479200000000000000e+04
-4.638100000000000000e+04
-5.203100000000000000e+04
-5.394200000000000000e+04
-4.945200000000000000e+04
-4.475700000000000000e+04
-4.633200000000000000e+04
-5.204300000000000000e+04
-5.392700000000000000e+04
-4.949600000000000000e+04
-4.483300000000000000e+04
-4.626100000000000000e+04
-5.204400000000000000e+04
-5.394000000000000000e+04
-4.946800000000000000e+04
-4.482600000000000000e+04
-4.637500000000000000e+04
-5.192400000000000000e+04
-5.386500000000000000e+04
-4.948900000000000000e+04
-4.472900000000000000e+04
-4.625300000000000000e+04
-5.197000000000000000e+04
-5.396400000000000000e+04
-4.956100000000000000e+04
-4.485700000000000000e+04
-4.624500000000000000e+04
-5.191100000000000000e+04
-5.394700000000000000e+04
-4.958500000000000000e+04
-4.478000000000000000e+04
-4.623000000000000000e+04
-5.197200000000000000e+04
-5.405900000000000000e+04
-4.954800000000000000e+04
-4.480500000000000000e+04
-4.620200000000000000e+04
-5.215900000000000000e+04
-5.413900000000000000e+04
-4.965100000000000000e+04
-4.475400000000000000e+04
-4.620600000000000000e+04
-5.189600000000000000e+04
-5.392700000000000000e+04
-4.963000000000000000e+04
-4.477200000000000000e+04
-4.615200000000000000e+04
-5.183400000000000000e+04
-5.398500000000000000e+04
-4.972100000000000000e+04
-4.474100000000000000e+04
-4.604900000000000000e+04
-5.177200000000000000e+04
-5.422200000000000000e+04
-4.981200000000000000e+04
-4.477700000000000000e+04
-4.608700000000000000e+04
-5.176100000000000000e+04
-5.396200000000000000e+04
-4.973600000000000000e+04
-4.480900000000000000e+04
-4.599800000000000000e+04
-5.172700000000000000e+04
-5.395100000000000000e+04
-4.972700000000000000e+04
-4.484500000000000000e+04
-4.613500000000000000e+04
-5.162400000000000000e+04
-5.387200000000000000e+04
-4.971500000000000000e+04
-4.477600000000000000e+04
-4.601900000000000000e+04
-5.167800000000000000e+04
-5.396700000000000000e+04
-4.983600000000000000e+04
-4.480200000000000000e+04
-4.596100000000000000e+04
-5.163800000000000000e+04
-5.398700000000000000e+04
-4.989100000000000000e+04
-4.480100000000000000e+04
-4.588600000000000000e+04
-5.156700000000000000e+04
-5.393800000000000000e+04
-4.982600000000000000e+04
-4.479600000000000000e+04
-4.594200000000000000e+04
-5.158400000000000000e+04
-5.391700000000000000e+04
-4.986100000000000000e+04
-4.482200000000000000e+04
-4.590600000000000000e+04
-5.152100000000000000e+04
-5.392900000000000000e+04
-4.984700000000000000e+04
-4.478300000000000000e+04
-4.588500000000000000e+04
-5.154100000000000000e+04
-5.397100000000000000e+04
-4.988700000000000000e+04
-4.481200000000000000e+04
-4.588700000000000000e+04
-5.147400000000000000e+04
-5.392900000000000000e+04
-4.991200000000000000e+04
-4.479900000000000000e+04
-4.582000000000000000e+04
-5.147600000000000000e+04
-5.398300000000000000e+04
-4.990500000000000000e+04
-4.482100000000000000e+04
-4.583500000000000000e+04
-5.142900000000000000e+04
-5.392200000000000000e+04
-4.996100000000000000e+04
-4.485200000000000000e+04
-4.576000000000000000e+04
-5.137600000000000000e+04
-5.397000000000000000e+04
-4.998200000000000000e+04
-4.484300000000000000e+04
-4.572400000000000000e+04
-5.140300000000000000e+04
-5.398700000000000000e+04
-5.002000000000000000e+04
-4.482300000000000000e+04
-4.568100000000000000e+04
-5.130700000000000000e+04
-5.396400000000000000e+04
-5.007100000000000000e+04
-4.488000000000000000e+04
-4.574900000000000000e+04
-5.134200000000000000e+04
-5.393900000000000000e+04
-5.009400000000000000e+04
-4.491900000000000000e+04
-4.569000000000000000e+04
-5.128000000000000000e+04
-5.399600000000000000e+04
-5.020200000000000000e+04
-4.486100000000000000e+04
-4.566000000000000000e+04
-5.125700000000000000e+04
-5.400100000000000000e+04
-5.019400000000000000e+04
-4.493400000000000000e+04
-4.564600000000000000e+04
-5.125700000000000000e+04
-5.408600000000000000e+04
-5.026200000000000000e+04
-4.489700000000000000e+04
-4.557800000000000000e+04
-5.120700000000000000e+04
-5.403100000000000000e+04
-5.025900000000000000e+04
-4.500200000000000000e+04
-4.566300000000000000e+04
-5.110700000000000000e+04
-5.400900000000000000e+04
-5.027700000000000000e+04
-4.495900000000000000e+04
-4.558400000000000000e+04
-5.116800000000000000e+04
-5.409600000000000000e+04
-5.039400000000000000e+04
-4.520600000000000000e+04
-4.570900000000000000e+04
-5.117700000000000000e+04
-5.407400000000000000e+04
-5.038600000000000000e+04
-4.503800000000000000e+04
-4.559400000000000000e+04
-5.113800000000000000e+04
-5.409400000000000000e+04
-5.027600000000000000e+04
-4.492200000000000000e+04
-4.550400000000000000e+04
-5.105900000000000000e+04
-5.408000000000000000e+04
-5.042300000000000000e+04
-4.504000000000000000e+04
-4.551700000000000000e+04
-5.102900000000000000e+04
-5.406400000000000000e+04
-5.043900000000000000e+04
-4.502600000000000000e+04
-4.548900000000000000e+04
-5.108600000000000000e+04
-5.410100000000000000e+04
-5.049200000000000000e+04
-4.506900000000000000e+04
-4.551100000000000000e+04
-5.093800000000000000e+04
-5.406100000000000000e+04
-5.051400000000000000e+04
-4.500700000000000000e+04
-4.542400000000000000e+04
-5.098600000000000000e+04
-5.407500000000000000e+04
-5.052500000000000000e+04
-4.507100000000000000e+04
-4.544300000000000000e+04
-5.096900000000000000e+04
-5.409200000000000000e+04
-5.064900000000000000e+04
-4.508100000000000000e+04
-4.530900000000000000e+04
-5.088300000000000000e+04
-5.412200000000000000e+04
-5.058400000000000000e+04
-4.508400000000000000e+04
-4.534900000000000000e+04
-5.086700000000000000e+04
-5.406300000000000000e+04
-5.064300000000000000e+04
-4.513600000000000000e+04
-4.537900000000000000e+04
-5.078400000000000000e+04
-5.399700000000000000e+04
-5.057200000000000000e+04
-4.505000000000000000e+04
-4.532900000000000000e+04
-5.084200000000000000e+04
-5.408200000000000000e+04
-5.064100000000000000e+04
-4.506500000000000000e+04
-4.530500000000000000e+04
-5.078400000000000000e+04
-5.411700000000000000e+04
-5.064600000000000000e+04
-4.503800000000000000e+04
-4.524000000000000000e+04
-5.073400000000000000e+04
-5.408700000000000000e+04
-5.070500000000000000e+04
-4.503200000000000000e+04
-4.520500000000000000e+04
-5.070100000000000000e+04
-5.410800000000000000e+04
-5.074400000000000000e+04
-4.513400000000000000e+04
-4.523900000000000000e+04
-5.070700000000000000e+04
-5.402500000000000000e+04
-5.075000000000000000e+04
-4.512700000000000000e+04
-4.517400000000000000e+04
-5.064900000000000000e+04
-5.409900000000000000e+04
-5.077600000000000000e+04
-4.512500000000000000e+04
-4.520900000000000000e+04
-5.062700000000000000e+04
-5.407000000000000000e+04
-5.079900000000000000e+04
-4.512100000000000000e+04
-4.512700000000000000e+04
-5.057000000000000000e+04
-5.408700000000000000e+04
-5.086100000000000000e+04
-4.518600000000000000e+04
-4.513600000000000000e+04
-5.056600000000000000e+04
-5.408200000000000000e+04
-5.091700000000000000e+04
-4.521200000000000000e+04
-4.518600000000000000e+04
-5.049100000000000000e+04
-5.406400000000000000e+04
-5.091500000000000000e+04
-4.520900000000000000e+04
-4.508400000000000000e+04
-5.049800000000000000e+04
-5.412800000000000000e+04
-5.096000000000000000e+04
-4.526600000000000000e+04
-4.505400000000000000e+04
-5.048400000000000000e+04
-5.420100000000000000e+04
-5.103100000000000000e+04
-4.519300000000000000e+04
-4.508900000000000000e+04
-5.044600000000000000e+04
-5.411100000000000000e+04
-5.100500000000000000e+04
-4.522700000000000000e+04
-4.504100000000000000e+04
-5.050500000000000000e+04
-5.416400000000000000e+04
-5.102600000000000000e+04
-4.526800000000000000e+04
-4.504200000000000000e+04
-5.046700000000000000e+04
-5.447100000000000000e+04
-5.126800000000000000e+04
-4.528200000000000000e+04
-4.498400000000000000e+04
-5.036300000000000000e+04
-5.414500000000000000e+04
-5.107300000000000000e+04
-4.527500000000000000e+04
-4.499200000000000000e+04
-5.036300000000000000e+04
-5.413600000000000000e+04
-5.115600000000000000e+04
-4.538400000000000000e+04
-4.501100000000000000e+04
-5.033600000000000000e+04
-5.411100000000000000e+04
-5.120500000000000000e+04
-4.539300000000000000e+04
-4.496600000000000000e+04
-5.025100000000000000e+04
-5.415800000000000000e+04
-5.120800000000000000e+04
-4.538200000000000000e+04
-4.504500000000000000e+04
-5.029200000000000000e+04
-5.412400000000000000e+04
-5.125000000000000000e+04
-4.547000000000000000e+04
-4.503100000000000000e+04
-5.033700000000000000e+04
-5.420200000000000000e+04
-5.136300000000000000e+04
-4.549300000000000000e+04
-4.490600000000000000e+04
-5.021600000000000000e+04
-5.407100000000000000e+04
-5.123800000000000000e+04
-4.546500000000000000e+04
-4.495600000000000000e+04
-5.019200000000000000e+04
-5.409400000000000000e+04
-5.129800000000000000e+04
-4.549600000000000000e+04
-4.497500000000000000e+04
-5.018300000000000000e+04
-5.413200000000000000e+04
-5.135400000000000000e+04
-4.551800000000000000e+04
-4.487400000000000000e+04
-5.012500000000000000e+04
-5.408000000000000000e+04
-5.131500000000000000e+04
-4.551800000000000000e+04
-4.492600000000000000e+04
-5.012700000000000000e+04
-5.413200000000000000e+04
-5.141900000000000000e+04
-4.556500000000000000e+04
-4.488900000000000000e+04
-5.008700000000000000e+04
-5.415200000000000000e+04
-5.149700000000000000e+04
-4.554900000000000000e+04
-4.492800000000000000e+04
-5.011200000000000000e+04
-5.410900000000000000e+04
-5.143800000000000000e+04
-4.560800000000000000e+04
-4.496500000000000000e+04
-5.009000000000000000e+04
-5.414100000000000000e+04
-5.152900000000000000e+04
-4.566100000000000000e+04
-4.496000000000000000e+04
-5.008400000000000000e+04
-5.409600000000000000e+04
-5.157700000000000000e+04
-4.570400000000000000e+04
-4.485100000000000000e+04
-4.999300000000000000e+04
-5.410800000000000000e+04
-5.150900000000000000e+04
-4.565200000000000000e+04
-4.491800000000000000e+04
-4.999200000000000000e+04
-5.408100000000000000e+04
-5.153900000000000000e+04
-4.569600000000000000e+04
-4.490100000000000000e+04
-4.992800000000000000e+04
-5.418000000000000000e+04
-5.163600000000000000e+04
-4.560800000000000000e+04
-4.480400000000000000e+04
-4.987200000000000000e+04
-5.409800000000000000e+04
-5.161600000000000000e+04
-4.571300000000000000e+04
-4.480900000000000000e+04
-4.987400000000000000e+04
-5.415200000000000000e+04
-5.166400000000000000e+04
-4.576400000000000000e+04
-4.482600000000000000e+04
-4.982000000000000000e+04
-5.407900000000000000e+04
-5.173900000000000000e+04
-4.583900000000000000e+04
-4.477100000000000000e+04
-4.978100000000000000e+04
-5.408200000000000000e+04
-5.175100000000000000e+04
-4.581000000000000000e+04
-4.482900000000000000e+04
-4.981400000000000000e+04
-5.410200000000000000e+04
-5.176600000000000000e+04
-4.582700000000000000e+04
-4.479300000000000000e+04
-4.978600000000000000e+04
-5.409600000000000000e+04
-5.177100000000000000e+04
-4.589300000000000000e+04
-4.483400000000000000e+04
-4.976000000000000000e+04
-5.408900000000000000e+04
-5.180200000000000000e+04
-4.594200000000000000e+04
-4.504200000000000000e+04
-4.982100000000000000e+04
-5.409600000000000000e+04
-5.179400000000000000e+04
-4.587200000000000000e+04
-4.476600000000000000e+04
-4.967400000000000000e+04
-5.409700000000000000e+04
-5.184300000000000000e+04
-4.589600000000000000e+04
-4.477000000000000000e+04
-4.964900000000000000e+04
-5.407900000000000000e+04
-5.188900000000000000e+04
-4.596400000000000000e+04
-4.476800000000000000e+04
-4.964600000000000000e+04
-5.410600000000000000e+04
-5.197800000000000000e+04
-4.601100000000000000e+04
-4.477700000000000000e+04
-4.962400000000000000e+04
-5.410900000000000000e+04
-5.191300000000000000e+04
-4.594600000000000000e+04
-4.473400000000000000e+04
-4.958400000000000000e+04
-5.407400000000000000e+04
-5.198700000000000000e+04
-4.603900000000000000e+04
-4.476700000000000000e+04
-4.957900000000000000e+04
-5.412600000000000000e+04
-5.204400000000000000e+04
-4.606500000000000000e+04
-4.475500000000000000e+04
-4.955900000000000000e+04
-5.408300000000000000e+04
-5.204800000000000000e+04
-4.611600000000000000e+04
-4.478900000000000000e+04
-4.951400000000000000e+04
-5.404700000000000000e+04
-5.206400000000000000e+04
-4.615000000000000000e+04
-4.481400000000000000e+04
-4.948600000000000000e+04
-5.401400000000000000e+04
-5.206100000000000000e+04
-4.612700000000000000e+04
-4.475900000000000000e+04
-4.946100000000000000e+04
-5.404800000000000000e+04
-5.212600000000000000e+04
-4.617500000000000000e+04
-4.472700000000000000e+04
-4.954700000000000000e+04
-5.416900000000000000e+04
-5.202200000000000000e+04
-4.611000000000000000e+04
-4.471300000000000000e+04
-4.943900000000000000e+04
-5.398100000000000000e+04
-5.212200000000000000e+04
-4.615300000000000000e+04
-4.458700000000000000e+04
-4.923600000000000000e+04
-5.395600000000000000e+04
-5.225100000000000000e+04
-4.628500000000000000e+04
-4.458300000000000000e+04
-4.920700000000000000e+04
-5.395500000000000000e+04
-5.209600000000000000e+04
-4.592100000000000000e+04
-4.460700000000000000e+04
-4.918100000000000000e+04
-5.388300000000000000e+04
-5.227500000000000000e+04
-4.640200000000000000e+04
-4.476600000000000000e+04
-4.937200000000000000e+04
-5.327900000000000000e+04
-5.215300000000000000e+04
-4.618100000000000000e+04
-4.447200000000000000e+04
-4.939200000000000000e+04
-5.404800000000000000e+04
-5.215800000000000000e+04
-4.625700000000000000e+04
-4.505000000000000000e+04
-4.957000000000000000e+04
-5.440900000000000000e+04
-5.261900000000000000e+04
-4.756500000000000000e+04
-4.554800000000000000e+04
-4.942200000000000000e+04
-5.477900000000000000e+04
-5.392700000000000000e+04
-4.766600000000000000e+04
-4.552900000000000000e+04
-5.034400000000000000e+04
-5.562300000000000000e+04
-5.395800000000000000e+04
-4.812100000000000000e+04
-4.624800000000000000e+04
-5.072100000000000000e+04
-5.626100000000000000e+04
-5.507100000000000000e+04
-4.866100000000000000e+04
-4.687600000000000000e+04
-5.152200000000000000e+04
-5.674700000000000000e+04
-5.545500000000000000e+04
-4.947100000000000000e+04
-4.742500000000000000e+04
-5.187900000000000000e+04
-5.702500000000000000e+04
-5.602400000000000000e+04
-5.008200000000000000e+04
-4.773100000000000000e+04
-5.188900000000000000e+04
-5.760200000000000000e+04
-5.654200000000000000e+04
-5.023700000000000000e+04
-4.792600000000000000e+04
-5.237700000000000000e+04
-5.765100000000000000e+04
-5.674900000000000000e+04
-5.065100000000000000e+04
-4.804800000000000000e+04
-5.236600000000000000e+04
-5.773900000000000000e+04
-5.665200000000000000e+04
-5.059700000000000000e+04
-4.820600000000000000e+04
-5.248600000000000000e+04
-5.797100000000000000e+04
-5.683300000000000000e+04
-5.076200000000000000e+04
-4.829200000000000000e+04
-5.276200000000000000e+04
-5.816400000000000000e+04
-5.702000000000000000e+04
-5.084600000000000000e+04
-4.832200000000000000e+04
-5.252800000000000000e+04
-5.806600000000000000e+04
-5.717900000000000000e+04
-5.093300000000000000e+04
-4.843900000000000000e+04
-5.270600000000000000e+04
-5.826400000000000000e+04
-5.718800000000000000e+04
-5.087900000000000000e+04
-4.835800000000000000e+04
-5.266900000000000000e+04
-5.817400000000000000e+04
-5.724200000000000000e+04
-5.098400000000000000e+04
-4.848900000000000000e+04
-5.265500000000000000e+04
-5.817200000000000000e+04
-5.734400000000000000e+04
-5.116300000000000000e+04
-4.846600000000000000e+04
-5.272700000000000000e+04
-5.826800000000000000e+04
-5.736400000000000000e+04
-5.128700000000000000e+04
-4.851100000000000000e+04
-5.253100000000000000e+04
-5.831700000000000000e+04
-5.752800000000000000e+04
-5.123400000000000000e+04
-4.856100000000000000e+04
-5.276600000000000000e+04
-5.836800000000000000e+04
-5.747700000000000000e+04
-5.138600000000000000e+04
-4.868700000000000000e+04
-5.277400000000000000e+04
-5.844200000000000000e+04
-5.755900000000000000e+04
-5.145500000000000000e+04
-4.870900000000000000e+04
-5.281200000000000000e+04
-5.846700000000000000e+04
-5.776100000000000000e+04
-5.154600000000000000e+04
-4.877500000000000000e+04
-5.295400000000000000e+04
-5.858000000000000000e+04
-5.783800000000000000e+04
-5.164400000000000000e+04
-4.886700000000000000e+04
-5.293100000000000000e+04
-5.841700000000000000e+04
-5.783800000000000000e+04
-5.177900000000000000e+04
-4.894200000000000000e+04
-5.298100000000000000e+04
-5.861400000000000000e+04
-5.790400000000000000e+04
-5.189400000000000000e+04
-4.898400000000000000e+04
-5.293600000000000000e+04
-5.863000000000000000e+04
-5.803900000000000000e+04
-5.195000000000000000e+04
-4.892700000000000000e+04
-5.296700000000000000e+04
-5.865000000000000000e+04
-5.816400000000000000e+04
-5.196700000000000000e+04
-4.902400000000000000e+04
-5.299700000000000000e+04
-5.868400000000000000e+04
-5.811100000000000000e+04
-5.209700000000000000e+04
-4.910700000000000000e+04
-5.303700000000000000e+04
-5.874100000000000000e+04
-5.829700000000000000e+04
-5.212600000000000000e+04
-4.918800000000000000e+04
-5.306800000000000000e+04
-5.887700000000000000e+04
-5.844400000000000000e+04
-5.222400000000000000e+04
-4.915500000000000000e+04
-5.306100000000000000e+04
-5.890500000000000000e+04
-5.843800000000000000e+04
-5.233800000000000000e+04
-4.931000000000000000e+04
-5.306400000000000000e+04
-5.880900000000000000e+04
-5.852700000000000000e+04
-5.238600000000000000e+04
-4.927100000000000000e+04
-5.317700000000000000e+04
-5.897200000000000000e+04
-5.858100000000000000e+04
-5.250300000000000000e+04
-4.940900000000000000e+04
-5.313100000000000000e+04
-5.890000000000000000e+04
-5.860100000000000000e+04
-5.263600000000000000e+04
-4.946900000000000000e+04
-5.318500000000000000e+04
-5.892600000000000000e+04
-5.864200000000000000e+04
-5.269900000000000000e+04
-4.950800000000000000e+04
-5.355300000000000000e+04
-5.917700000000000000e+04
-5.874600000000000000e+04
-5.275700000000000000e+04
-4.952000000000000000e+04
-5.320000000000000000e+04
-5.894200000000000000e+04
-5.884200000000000000e+04
-5.279300000000000000e+04
-4.951800000000000000e+04
-5.321600000000000000e+04
-5.900400000000000000e+04
-5.882200000000000000e+04
-5.281500000000000000e+04
-4.952400000000000000e+04
-5.328900000000000000e+04
-5.895400000000000000e+04
-5.878900000000000000e+04
-5.286400000000000000e+04
-4.955400000000000000e+04
-5.305100000000000000e+04
-5.894700000000000000e+04
-5.881100000000000000e+04
-5.278000000000000000e+04
-4.943300000000000000e+04
-5.292100000000000000e+04
-5.864300000000000000e+04
-5.856400000000000000e+04
-5.267700000000000000e+04
-4.932900000000000000e+04
-5.273600000000000000e+04
-5.846200000000000000e+04
-5.837900000000000000e+04
-5.249600000000000000e+04
-4.917100000000000000e+04
-5.258100000000000000e+04
-5.824500000000000000e+04
-5.809200000000000000e+04
-5.218600000000000000e+04
-4.889600000000000000e+04
-5.243600000000000000e+04
-5.795600000000000000e+04
-5.771900000000000000e+04
-5.191600000000000000e+04
-4.851900000000000000e+04
-5.192600000000000000e+04
-5.762000000000000000e+04
-5.747000000000000000e+04
-5.163600000000000000e+04
-4.819600000000000000e+04
-5.151200000000000000e+04
-5.714900000000000000e+04
-5.710800000000000000e+04
-5.142900000000000000e+04
-4.800300000000000000e+04
-5.116300000000000000e+04
-5.688600000000000000e+04
-5.706700000000000000e+04
-5.149400000000000000e+04
-4.815200000000000000e+04
-5.146700000000000000e+04
-5.716600000000000000e+04
-5.725700000000000000e+04
-5.177100000000000000e+04
-4.842700000000000000e+04
-5.163400000000000000e+04
-5.733600000000000000e+04
-5.739200000000000000e+04
-5.190400000000000000e+04
-4.853800000000000000e+04
-5.173700000000000000e+04
-5.743400000000000000e+04
-5.743300000000000000e+04
-5.179700000000000000e+04
-4.848400000000000000e+04
-5.161900000000000000e+04
-5.712400000000000000e+04
-5.713900000000000000e+04
-5.155900000000000000e+04
-4.837400000000000000e+04
-5.156900000000000000e+04
-5.696100000000000000e+04
-5.692000000000000000e+04
-5.137300000000000000e+04
-4.816600000000000000e+04
-5.141900000000000000e+04
-5.690200000000000000e+04
-5.682400000000000000e+04
-5.129200000000000000e+04
-4.812600000000000000e+04
-5.135900000000000000e+04
-5.672700000000000000e+04
-5.661400000000000000e+04
-5.107900000000000000e+04
-4.784400000000000000e+04
-5.107200000000000000e+04
-5.653400000000000000e+04
-5.657800000000000000e+04
-5.105700000000000000e+04
-4.778400000000000000e+04
-5.098000000000000000e+04
-5.649500000000000000e+04
-5.653700000000000000e+04
-5.098400000000000000e+04
-4.766300000000000000e+04
-5.084700000000000000e+04
-5.635900000000000000e+04
-5.647600000000000000e+04
-5.100900000000000000e+04
-4.766900000000000000e+04
-5.085500000000000000e+04
-5.631600000000000000e+04
-5.639900000000000000e+04
-5.096200000000000000e+04
-4.768200000000000000e+04
-5.070400000000000000e+04
-5.622100000000000000e+04
-5.630200000000000000e+04
-5.088500000000000000e+04
-4.751000000000000000e+04
-5.056600000000000000e+04
-5.614600000000000000e+04
-5.625300000000000000e+04
-5.078900000000000000e+04
-4.748900000000000000e+04
-5.046400000000000000e+04
-5.594800000000000000e+04
-5.618500000000000000e+04
-5.099000000000000000e+04
-4.762700000000000000e+04
-5.039700000000000000e+04
-5.583700000000000000e+04
-5.611400000000000000e+04
-5.065600000000000000e+04
-4.722400000000000000e+04
-5.028000000000000000e+04
-5.586800000000000000e+04
-5.625100000000000000e+04
-5.064400000000000000e+04
-4.711100000000000000e+04
-5.012100000000000000e+04
-5.576600000000000000e+04
-5.607100000000000000e+04
-5.051400000000000000e+04
-4.710200000000000000e+04
-5.013200000000000000e+04
-5.557100000000000000e+04
-5.595200000000000000e+04
-5.059100000000000000e+04
-4.705400000000000000e+04
-5.000200000000000000e+04
-5.558300000000000000e+04
-5.594500000000000000e+04
-5.057200000000000000e+04
-4.704600000000000000e+04
-5.000800000000000000e+04
-5.556400000000000000e+04
-5.594900000000000000e+04
-5.059600000000000000e+04
-4.704100000000000000e+04
-4.997400000000000000e+04
-5.551800000000000000e+04
-5.599000000000000000e+04
-5.069100000000000000e+04
-4.691900000000000000e+04
-4.988100000000000000e+04
-5.543900000000000000e+04
-5.590100000000000000e+04
-5.059700000000000000e+04
-4.699900000000000000e+04
-4.981900000000000000e+04
-5.540200000000000000e+04
-5.589600000000000000e+04
-5.060500000000000000e+04
-4.697400000000000000e+04
-4.982100000000000000e+04
-5.542400000000000000e+04
-5.583300000000000000e+04
-5.058400000000000000e+04
-4.685500000000000000e+04
-4.963900000000000000e+04
-5.529600000000000000e+04
-5.586200000000000000e+04
-5.056700000000000000e+04
-4.686000000000000000e+04
-4.963900000000000000e+04
-5.530600000000000000e+04
-5.592400000000000000e+04
-5.058600000000000000e+04
-4.684200000000000000e+04
-4.961000000000000000e+04
-5.523400000000000000e+04
-5.585100000000000000e+04
-5.058500000000000000e+04
-4.678700000000000000e+04
-4.953400000000000000e+04
-5.521200000000000000e+04
-5.585900000000000000e+04
-5.059600000000000000e+04
-4.680700000000000000e+04
-4.949600000000000000e+04
-5.520100000000000000e+04
-5.589700000000000000e+04
-5.047200000000000000e+04
-4.670400000000000000e+04
-4.945400000000000000e+04
-5.511900000000000000e+04
-5.576300000000000000e+04
-5.055400000000000000e+04
-4.674100000000000000e+04
-4.945100000000000000e+04
-5.505900000000000000e+04
-5.577400000000000000e+04
-5.060000000000000000e+04
-4.675500000000000000e+04
-4.935800000000000000e+04
-5.499600000000000000e+04
-5.574100000000000000e+04
-5.055300000000000000e+04
-4.667600000000000000e+04
-4.934000000000000000e+04
-5.498200000000000000e+04
-5.573100000000000000e+04
-5.057600000000000000e+04
-4.665700000000000000e+04
-4.922200000000000000e+04
-5.494400000000000000e+04
-5.577900000000000000e+04
-5.062100000000000000e+04
-4.666900000000000000e+04
-4.918100000000000000e+04
-5.491300000000000000e+04
-5.580600000000000000e+04
-5.067800000000000000e+04
-4.669700000000000000e+04
-4.915000000000000000e+04
-5.489400000000000000e+04
-5.578400000000000000e+04
-5.057700000000000000e+04
-4.660400000000000000e+04
-4.914200000000000000e+04
-5.486400000000000000e+04
-5.573700000000000000e+04
-5.053900000000000000e+04
-4.654900000000000000e+04
-4.902700000000000000e+04
-5.477600000000000000e+04
-5.575300000000000000e+04
-5.064400000000000000e+04
-4.660200000000000000e+04
-4.905500000000000000e+04
-5.477600000000000000e+04
-5.576600000000000000e+04
-5.065100000000000000e+04
-4.656200000000000000e+04
-4.897900000000000000e+04
-5.479300000000000000e+04
-5.586700000000000000e+04
-5.065800000000000000e+04
-4.655200000000000000e+04
-4.901800000000000000e+04
-5.465600000000000000e+04
-5.568700000000000000e+04
-5.066900000000000000e+04
-4.651600000000000000e+04
-4.890200000000000000e+04
-5.479700000000000000e+04
-5.576100000000000000e+04
-5.063500000000000000e+04
-4.647900000000000000e+04
-4.881900000000000000e+04
-5.457200000000000000e+04
-5.569600000000000000e+04
-5.067900000000000000e+04
-4.649000000000000000e+04
-4.880800000000000000e+04
-5.456900000000000000e+04
-5.576300000000000000e+04
-5.078100000000000000e+04
-4.641400000000000000e+04
-4.874700000000000000e+04
-5.453400000000000000e+04
-5.567400000000000000e+04
-5.067600000000000000e+04
-4.646700000000000000e+04
-4.879700000000000000e+04
-5.451500000000000000e+04
-5.565900000000000000e+04
-5.068500000000000000e+04
-4.644200000000000000e+04
-4.871700000000000000e+04
-5.449700000000000000e+04
-5.574600000000000000e+04
-5.073200000000000000e+04
-4.638600000000000000e+04
-4.863900000000000000e+04
-5.444900000000000000e+04
-5.576200000000000000e+04
-5.080300000000000000e+04
-4.632600000000000000e+04
-4.853800000000000000e+04
-5.433600000000000000e+04
-5.564400000000000000e+04
-5.068800000000000000e+04
-4.640200000000000000e+04
-4.860500000000000000e+04
-5.436400000000000000e+04
-5.563600000000000000e+04
-5.070700000000000000e+04
-4.640200000000000000e+04
-4.853300000000000000e+04
-5.430900000000000000e+04
-5.565300000000000000e+04
-5.075600000000000000e+04
-4.639700000000000000e+04
-4.850400000000000000e+04
-5.429100000000000000e+04
-5.565700000000000000e+04
-5.079600000000000000e+04
-4.645300000000000000e+04
-4.848900000000000000e+04
-5.422800000000000000e+04
-5.570900000000000000e+04
-5.084900000000000000e+04
-4.631500000000000000e+04
-4.839900000000000000e+04
-5.422000000000000000e+04
-5.572700000000000000e+04
-5.078100000000000000e+04
-4.630100000000000000e+04
-4.834500000000000000e+04
-5.416400000000000000e+04
-5.559200000000000000e+04
-5.078200000000000000e+04
-4.633900000000000000e+04
-4.835500000000000000e+04
-5.409400000000000000e+04
-5.559400000000000000e+04
-5.080100000000000000e+04
-4.633600000000000000e+04
-4.829700000000000000e+04
-5.406500000000000000e+04
-5.563500000000000000e+04
-5.082400000000000000e+04
-4.631000000000000000e+04
-4.827100000000000000e+04
-5.404200000000000000e+04
-5.558700000000000000e+04
-5.081900000000000000e+04
-4.630700000000000000e+04
-4.823600000000000000e+04
-5.400500000000000000e+04
-5.561400000000000000e+04
-5.082600000000000000e+04
-4.629100000000000000e+04
-4.825300000000000000e+04
-5.405400000000000000e+04
-5.554700000000000000e+04
-5.079900000000000000e+04
-4.632400000000000000e+04
-4.812600000000000000e+04
-5.390100000000000000e+04
-5.561700000000000000e+04
-5.079400000000000000e+04
-4.623400000000000000e+04
-4.807500000000000000e+04
-5.384100000000000000e+04
-5.554100000000000000e+04
-5.087400000000000000e+04
-4.627800000000000000e+04
-4.807400000000000000e+04
-5.385500000000000000e+04
-5.558100000000000000e+04
-5.088900000000000000e+04
-4.627000000000000000e+04
-4.805700000000000000e+04
-5.385600000000000000e+04
-5.555700000000000000e+04
-5.093700000000000000e+04
-4.626600000000000000e+04
-4.803800000000000000e+04
-5.378500000000000000e+04
-5.553200000000000000e+04
-5.091200000000000000e+04
-4.636900000000000000e+04
-4.824700000000000000e+04
-5.371600000000000000e+04
-5.550200000000000000e+04
-5.092100000000000000e+04
-4.629000000000000000e+04
-4.798100000000000000e+04
-5.367600000000000000e+04
-5.547800000000000000e+04
-5.090700000000000000e+04
-4.623200000000000000e+04
-4.790700000000000000e+04
-5.367200000000000000e+04
-5.550700000000000000e+04
-5.092800000000000000e+04
-4.620400000000000000e+04
-4.788200000000000000e+04
-5.365900000000000000e+04
-5.547700000000000000e+04
-5.096200000000000000e+04
-4.631300000000000000e+04
-4.783900000000000000e+04
-5.359200000000000000e+04
-5.551700000000000000e+04
-5.090900000000000000e+04
-4.615700000000000000e+04
-4.781200000000000000e+04
-5.356100000000000000e+04
-5.547100000000000000e+04
-5.097100000000000000e+04
-4.622900000000000000e+04
-4.774900000000000000e+04
-5.354800000000000000e+04
-5.550300000000000000e+04
-5.101600000000000000e+04
-4.618300000000000000e+04
-4.767100000000000000e+04
-5.346500000000000000e+04
-5.542100000000000000e+04
-5.094400000000000000e+04
-4.616700000000000000e+04
-4.769900000000000000e+04
-5.345800000000000000e+04
-5.544900000000000000e+04
-5.099300000000000000e+04
-4.617500000000000000e+04
-4.766900000000000000e+04
-5.342300000000000000e+04
-5.544700000000000000e+04
-5.101600000000000000e+04
-4.618200000000000000e+04
-4.766800000000000000e+04
-5.341900000000000000e+04
-5.549600000000000000e+04
-5.108100000000000000e+04
-4.622900000000000000e+04
-4.755900000000000000e+04
-5.323600000000000000e+04
-5.542200000000000000e+04
-5.106700000000000000e+04
-4.620600000000000000e+04
-4.755700000000000000e+04
-5.325100000000000000e+04
-5.541700000000000000e+04
-5.108200000000000000e+04
-4.615600000000000000e+04
-4.751300000000000000e+04
-5.325800000000000000e+04
-5.542100000000000000e+04
-5.108600000000000000e+04
-4.615700000000000000e+04
-4.746600000000000000e+04
-5.321900000000000000e+04
-5.543700000000000000e+04
-5.111200000000000000e+04
-4.614600000000000000e+04
-4.746300000000000000e+04
-5.320400000000000000e+04
-5.543400000000000000e+04
-5.116600000000000000e+04
-4.613400000000000000e+04
-4.739000000000000000e+04
-5.319900000000000000e+04
-5.541300000000000000e+04
-5.117500000000000000e+04
-4.618100000000000000e+04
-4.736300000000000000e+04
-5.310600000000000000e+04
-5.542900000000000000e+04
-5.113900000000000000e+04
-4.614600000000000000e+04
-4.738100000000000000e+04
-5.307200000000000000e+04
-5.539100000000000000e+04
-5.118600000000000000e+04
-4.612600000000000000e+04
-4.731400000000000000e+04
-5.304100000000000000e+04
-5.539700000000000000e+04
-5.120900000000000000e+04
-4.612500000000000000e+04
-4.729300000000000000e+04
-5.303600000000000000e+04
-5.537500000000000000e+04
-5.123500000000000000e+04
-4.617100000000000000e+04
-4.723400000000000000e+04
-5.295100000000000000e+04
-5.545400000000000000e+04
-5.131500000000000000e+04
-4.606400000000000000e+04
-4.719900000000000000e+04
-5.290200000000000000e+04
-5.536400000000000000e+04
-5.125700000000000000e+04
-4.612600000000000000e+04
-4.717100000000000000e+04
-5.288800000000000000e+04
-5.538600000000000000e+04
-5.130300000000000000e+04
-4.616400000000000000e+04
-4.720100000000000000e+04
-5.286400000000000000e+04
-5.537500000000000000e+04
-5.129200000000000000e+04
-4.616400000000000000e+04
-4.717800000000000000e+04
-5.289200000000000000e+04
-5.572000000000000000e+04
-5.167100000000000000e+04
-4.641900000000000000e+04
-4.763500000000000000e+04
-5.293000000000000000e+04
-5.536700000000000000e+04
-5.135200000000000000e+04
-4.614700000000000000e+04
-4.712100000000000000e+04
-5.281400000000000000e+04
-5.531700000000000000e+04
-5.138000000000000000e+04
-4.615900000000000000e+04
-4.701200000000000000e+04
-5.271400000000000000e+04
-5.534700000000000000e+04
-5.136900000000000000e+04
-4.619100000000000000e+04
-4.705400000000000000e+04
-5.271000000000000000e+04
-5.539400000000000000e+04
-5.139400000000000000e+04
-4.618500000000000000e+04
-4.706400000000000000e+04
-5.266400000000000000e+04
-5.532700000000000000e+04
-5.140100000000000000e+04
-4.617200000000000000e+04
-4.701500000000000000e+04
-5.266600000000000000e+04
-5.536700000000000000e+04
-5.143400000000000000e+04
-4.619400000000000000e+04
-4.701700000000000000e+04
-5.268400000000000000e+04
-5.544900000000000000e+04
-5.149500000000000000e+04
-4.610900000000000000e+04
-4.691900000000000000e+04
-5.258700000000000000e+04
-5.534600000000000000e+04
-5.147700000000000000e+04
-4.619700000000000000e+04
-4.695700000000000000e+04
-5.262200000000000000e+04
-5.530200000000000000e+04
-5.149600000000000000e+04
-4.622700000000000000e+04
-4.692200000000000000e+04
-5.253400000000000000e+04
-5.535600000000000000e+04
-5.158400000000000000e+04
-4.618900000000000000e+04
-4.685600000000000000e+04
-5.245300000000000000e+04
-5.530800000000000000e+04
-5.153300000000000000e+04
-4.620100000000000000e+04
-4.686200000000000000e+04
-5.247200000000000000e+04
-5.535900000000000000e+04
-5.158300000000000000e+04
-4.623700000000000000e+04
-4.682900000000000000e+04
-5.245500000000000000e+04
-5.536900000000000000e+04
-5.158500000000000000e+04
-4.623600000000000000e+04
-4.683200000000000000e+04
-5.248400000000000000e+04
-5.533600000000000000e+04
-5.162200000000000000e+04
-4.624600000000000000e+04
-4.677600000000000000e+04
-5.236900000000000000e+04
-5.531300000000000000e+04
-5.160600000000000000e+04
-4.622900000000000000e+04
-4.677100000000000000e+04
-5.234500000000000000e+04
-5.537100000000000000e+04
-5.169400000000000000e+04
-4.620700000000000000e+04
-4.672400000000000000e+04
-5.228100000000000000e+04
-5.529800000000000000e+04
-5.170900000000000000e+04
-4.629100000000000000e+04
-4.674000000000000000e+04
-5.230700000000000000e+04
-5.536100000000000000e+04
-5.171700000000000000e+04
-4.628500000000000000e+04
-4.677900000000000000e+04
-5.223300000000000000e+04
-5.534400000000000000e+04
-5.175200000000000000e+04
-4.627100000000000000e+04
-4.669900000000000000e+04
-5.225500000000000000e+04
-5.539400000000000000e+04
-5.179500000000000000e+04
-4.631700000000000000e+04
-4.667900000000000000e+04
-5.220500000000000000e+04
-5.533700000000000000e+04
-5.181200000000000000e+04
-4.630700000000000000e+04
-4.666800000000000000e+04
-5.218200000000000000e+04
-5.531400000000000000e+04
-5.182200000000000000e+04
-4.634600000000000000e+04
-4.665200000000000000e+04
-5.217500000000000000e+04
-5.534700000000000000e+04
-5.185100000000000000e+04
-4.636000000000000000e+04
-4.667100000000000000e+04
-5.215400000000000000e+04
-5.530000000000000000e+04
-5.186900000000000000e+04
-4.636600000000000000e+04
-4.667300000000000000e+04
-5.215600000000000000e+04
-5.535200000000000000e+04
-5.199100000000000000e+04
-4.638600000000000000e+04
-4.677600000000000000e+04
-5.231700000000000000e+04
-5.530900000000000000e+04
-5.188200000000000000e+04
-4.636400000000000000e+04
-4.657200000000000000e+04
-5.206000000000000000e+04
-5.532100000000000000e+04
-5.194900000000000000e+04
-4.642600000000000000e+04
-4.659000000000000000e+04
-5.204600000000000000e+04
-5.533200000000000000e+04
-5.200400000000000000e+04
-4.639900000000000000e+04
-4.658600000000000000e+04
-5.201800000000000000e+04
-5.529100000000000000e+04
-5.199700000000000000e+04
-4.643100000000000000e+04
-4.654400000000000000e+04
-5.200700000000000000e+04
-5.533000000000000000e+04
-5.206700000000000000e+04
-4.643900000000000000e+04
-4.654100000000000000e+04
-5.199400000000000000e+04
-5.533200000000000000e+04
-5.199600000000000000e+04
-4.643100000000000000e+04
-4.651200000000000000e+04
-5.187900000000000000e+04
-5.532700000000000000e+04
-5.204100000000000000e+04
-4.642600000000000000e+04
-4.649100000000000000e+04
-5.189700000000000000e+04
-5.532900000000000000e+04
-5.207900000000000000e+04
-4.648200000000000000e+04
-4.647600000000000000e+04
-5.186900000000000000e+04
-5.527900000000000000e+04
-5.208200000000000000e+04
-4.648400000000000000e+04
-4.643800000000000000e+04
-5.181600000000000000e+04
-5.534600000000000000e+04
-5.218200000000000000e+04
-4.650800000000000000e+04
-4.639200000000000000e+04
-5.177200000000000000e+04
-5.533700000000000000e+04
-5.220100000000000000e+04
-4.645300000000000000e+04
-4.642200000000000000e+04
-5.172700000000000000e+04
-5.529400000000000000e+04
-5.217800000000000000e+04
-4.646600000000000000e+04
-4.638400000000000000e+04
-5.176100000000000000e+04
-5.533400000000000000e+04
-5.220100000000000000e+04
-4.652500000000000000e+04
-4.639200000000000000e+04
-5.164900000000000000e+04
-5.529100000000000000e+04
-5.223200000000000000e+04
-4.656100000000000000e+04
-4.636400000000000000e+04
-5.170600000000000000e+04
-5.530900000000000000e+04
-5.220200000000000000e+04
-4.653700000000000000e+04
-4.639300000000000000e+04
-5.164900000000000000e+04
-5.528400000000000000e+04
-5.229000000000000000e+04
-4.661700000000000000e+04
-4.633100000000000000e+04
-5.161200000000000000e+04
-5.532400000000000000e+04
-5.235000000000000000e+04
-4.660000000000000000e+04
-4.632800000000000000e+04
-5.160700000000000000e+04
-5.529500000000000000e+04
-5.235600000000000000e+04
-4.664900000000000000e+04
-4.631600000000000000e+04
-5.157400000000000000e+04
-5.533000000000000000e+04
-5.245200000000000000e+04
-4.667200000000000000e+04
-4.629300000000000000e+04
-5.154200000000000000e+04
-5.536400000000000000e+04
-5.243200000000000000e+04
-4.664800000000000000e+04
-4.623900000000000000e+04
-5.147200000000000000e+04
-5.530000000000000000e+04
-5.246100000000000000e+04
-4.673900000000000000e+04
-4.631000000000000000e+04
-5.150300000000000000e+04
-5.531700000000000000e+04
-5.247400000000000000e+04
-4.673700000000000000e+04
-4.627900000000000000e+04
-5.149000000000000000e+04
-5.535300000000000000e+04
-5.253900000000000000e+04
-4.677000000000000000e+04
-4.629400000000000000e+04
-5.144500000000000000e+04
-5.530400000000000000e+04
-5.254800000000000000e+04
-4.679600000000000000e+04
-4.627900000000000000e+04
-5.141000000000000000e+04
-5.538700000000000000e+04
-5.262200000000000000e+04
-4.679000000000000000e+04
-4.622600000000000000e+04
-5.139400000000000000e+04
-5.539600000000000000e+04
-5.288600000000000000e+04
-4.691700000000000000e+04
-4.639500000000000000e+04
-5.138700000000000000e+04
-5.539200000000000000e+04
-5.268000000000000000e+04
-4.684400000000000000e+04
-4.617700000000000000e+04
-5.131100000000000000e+04
-5.530400000000000000e+04
-5.265700000000000000e+04
-4.686600000000000000e+04
-4.624200000000000000e+04
-5.136400000000000000e+04
-5.534600000000000000e+04
-5.269100000000000000e+04
-4.692100000000000000e+04
-4.623900000000000000e+04
-5.129900000000000000e+04
-5.535000000000000000e+04
-5.278300000000000000e+04
-4.693100000000000000e+04
-4.619400000000000000e+04
-5.130200000000000000e+04
-5.528400000000000000e+04
-5.271400000000000000e+04
-4.690600000000000000e+04
-4.620700000000000000e+04
-5.128200000000000000e+04
-5.535900000000000000e+04
-5.280600000000000000e+04
-4.697000000000000000e+04
-4.624700000000000000e+04
-5.124900000000000000e+04
-5.536600000000000000e+04
-5.283900000000000000e+04
-4.700500000000000000e+04
-4.620000000000000000e+04
-5.123700000000000000e+04
-5.534100000000000000e+04
-5.283200000000000000e+04
-4.705400000000000000e+04
-4.621900000000000000e+04
-5.123400000000000000e+04
-5.535200000000000000e+04
-5.286700000000000000e+04
-4.707400000000000000e+04
-4.617100000000000000e+04
-5.114900000000000000e+04
-5.532000000000000000e+04
-5.287500000000000000e+04
-4.703800000000000000e+04
-4.619400000000000000e+04
-5.123100000000000000e+04
-5.539000000000000000e+04
-5.290200000000000000e+04
-4.708100000000000000e+04
-4.618900000000000000e+04
-5.112900000000000000e+04
-5.534500000000000000e+04
-5.299700000000000000e+04
-4.707400000000000000e+04
-4.614200000000000000e+04
-5.112700000000000000e+04
-5.533900000000000000e+04
-5.296900000000000000e+04
-4.712600000000000000e+04
-4.617600000000000000e+04
-5.112600000000000000e+04
-5.536600000000000000e+04
-5.307000000000000000e+04
-4.719700000000000000e+04
-4.614400000000000000e+04
-5.108000000000000000e+04
-5.534800000000000000e+04
-5.303100000000000000e+04
-4.719100000000000000e+04
-4.621200000000000000e+04
-5.108600000000000000e+04
-5.539100000000000000e+04
-5.308200000000000000e+04
-4.725900000000000000e+04
-4.621300000000000000e+04
-5.114200000000000000e+04
-5.525500000000000000e+04
-5.301200000000000000e+04
-4.720000000000000000e+04
-4.617000000000000000e+04
-5.101700000000000000e+04
-5.537900000000000000e+04
-5.312000000000000000e+04
-4.723100000000000000e+04
-4.616200000000000000e+04
-5.107900000000000000e+04
-5.544100000000000000e+04
-5.313100000000000000e+04
-4.725400000000000000e+04
-4.615200000000000000e+04
-5.100200000000000000e+04
-5.539400000000000000e+04
-5.326300000000000000e+04
-4.726100000000000000e+04
-4.614000000000000000e+04
-5.098100000000000000e+04
-5.535900000000000000e+04
-5.322100000000000000e+04
-4.733600000000000000e+04
-4.613200000000000000e+04
-5.094200000000000000e+04
-5.538900000000000000e+04
-5.323700000000000000e+04
-4.736100000000000000e+04
-4.615200000000000000e+04
-5.093000000000000000e+04
-5.541900000000000000e+04
-5.328900000000000000e+04
-4.747500000000000000e+04
-4.614200000000000000e+04
-5.085600000000000000e+04
-5.533800000000000000e+04
-5.332400000000000000e+04
-4.753500000000000000e+04
-4.619700000000000000e+04
-5.080600000000000000e+04
-5.530500000000000000e+04
-5.331400000000000000e+04
-4.745000000000000000e+04
-4.618900000000000000e+04
-5.111000000000000000e+04
-5.549200000000000000e+04
-5.341200000000000000e+04
-4.747300000000000000e+04
-4.614900000000000000e+04
-5.087100000000000000e+04
-5.536700000000000000e+04
-5.343400000000000000e+04
-4.750700000000000000e+04
-4.611700000000000000e+04
-5.084000000000000000e+04
-5.538700000000000000e+04
-5.347900000000000000e+04
-4.752800000000000000e+04
-4.609200000000000000e+04
-5.081700000000000000e+04
-5.537000000000000000e+04
-5.342500000000000000e+04
-4.755100000000000000e+04
-4.616300000000000000e+04
-5.082900000000000000e+04
-5.535400000000000000e+04
-5.350700000000000000e+04
-4.762400000000000000e+04
-4.616700000000000000e+04
-5.083700000000000000e+04
-5.540400000000000000e+04
-5.356700000000000000e+04
-4.762700000000000000e+04
-4.607200000000000000e+04
-5.074600000000000000e+04
-5.533500000000000000e+04
-5.349400000000000000e+04
-4.763200000000000000e+04
-4.614500000000000000e+04
-5.079100000000000000e+04
-5.541100000000000000e+04
-5.356900000000000000e+04
-4.761000000000000000e+04
-4.616500000000000000e+04
-5.076100000000000000e+04
-5.528500000000000000e+04
-5.357600000000000000e+04
-4.776200000000000000e+04
-4.612600000000000000e+04
-5.060600000000000000e+04
-5.518900000000000000e+04
-5.372800000000000000e+04
-4.768300000000000000e+04
-4.608600000000000000e+04
-5.085100000000000000e+04
-5.549700000000000000e+04
-5.369400000000000000e+04
-4.787400000000000000e+04
-4.624400000000000000e+04
-5.068400000000000000e+04
-5.537200000000000000e+04
-5.361500000000000000e+04
-4.779300000000000000e+04
-4.611700000000000000e+04
-5.057700000000000000e+04
-5.535700000000000000e+04
-5.374400000000000000e+04
-4.756700000000000000e+04
-4.588800000000000000e+04
-5.061400000000000000e+04
-5.512900000000000000e+04
-5.349100000000000000e+04
-4.749400000000000000e+04
-4.572000000000000000e+04
-5.089600000000000000e+04
-5.544100000000000000e+04
-5.353200000000000000e+04
-4.778100000000000000e+04
-4.585600000000000000e+04
-5.031600000000000000e+04
-5.502100000000000000e+04
-5.368400000000000000e+04
-4.770300000000000000e+04
-4.576600000000000000e+04
-4.993700000000000000e+04
-5.504600000000000000e+04
-5.373300000000000000e+04
-4.781400000000000000e+04
-4.584700000000000000e+04
-5.005900000000000000e+04
-5.508900000000000000e+04
-5.402800000000000000e+04
-4.789900000000000000e+04
-4.588200000000000000e+04
-5.032000000000000000e+04
-5.527100000000000000e+04
-5.410900000000000000e+04
-4.812600000000000000e+04
-4.616900000000000000e+04
-5.044400000000000000e+04
-5.563800000000000000e+04
-5.454900000000000000e+04
-4.851200000000000000e+04
-4.609700000000000000e+04
-5.062900000000000000e+04
-5.612700000000000000e+04
-5.489800000000000000e+04
-4.883600000000000000e+04
-4.642700000000000000e+04
-5.074100000000000000e+04
-5.647400000000000000e+04
-5.553600000000000000e+04
-4.915200000000000000e+04
-4.692500000000000000e+04
-5.105000000000000000e+04
-5.657000000000000000e+04
-5.585700000000000000e+04
-4.929900000000000000e+04
-4.716200000000000000e+04
-5.139900000000000000e+04
-5.709600000000000000e+04
-5.584700000000000000e+04
-4.978100000000000000e+04
-4.769900000000000000e+04
-5.168400000000000000e+04
-5.701200000000000000e+04
-5.629400000000000000e+04
-5.051900000000000000e+04
-4.801100000000000000e+04
-5.197700000000000000e+04
-5.770000000000000000e+04
-5.713500000000000000e+04
-5.084300000000000000e+04
-4.821300000000000000e+04
-5.249300000000000000e+04
-5.812600000000000000e+04
-5.719800000000000000e+04
-5.140600000000000000e+04
-4.852200000000000000e+04
-5.292900000000000000e+04
-5.820700000000000000e+04
-5.709600000000000000e+04
-5.123900000000000000e+04
-4.908100000000000000e+04
-5.284200000000000000e+04
-5.835600000000000000e+04
-5.774400000000000000e+04
-5.148300000000000000e+04
-4.869000000000000000e+04
-5.303800000000000000e+04
-5.857200000000000000e+04
-5.758600000000000000e+04
-5.157400000000000000e+04
-4.900600000000000000e+04
-5.303900000000000000e+04
-5.863500000000000000e+04
-5.776400000000000000e+04
-5.172600000000000000e+04
-4.921600000000000000e+04
-5.342400000000000000e+04
-5.903400000000000000e+04
-5.824100000000000000e+04
-5.204200000000000000e+04
-4.927400000000000000e+04
-5.362600000000000000e+04
-5.930900000000000000e+04
-5.813600000000000000e+04
-5.209000000000000000e+04
-4.938800000000000000e+04
-5.355200000000000000e+04
-5.917100000000000000e+04
-5.839100000000000000e+04
-5.233400000000000000e+04
-4.972100000000000000e+04
-5.372400000000000000e+04
-5.931900000000000000e+04
-5.867700000000000000e+04
-5.244800000000000000e+04
-4.972900000000000000e+04
-5.400700000000000000e+04
-5.946300000000000000e+04
-5.868500000000000000e+04
-5.273400000000000000e+04
-4.996400000000000000e+04
-5.380600000000000000e+04
-5.939200000000000000e+04
-5.876100000000000000e+04
-5.277100000000000000e+04
-5.000100000000000000e+04
-5.386600000000000000e+04
-5.960600000000000000e+04
-5.904900000000000000e+04
-5.275900000000000000e+04
-4.997600000000000000e+04
-5.411200000000000000e+04
-5.958200000000000000e+04
-5.899700000000000000e+04
-5.288400000000000000e+04
-5.011000000000000000e+04
-5.406200000000000000e+04
-5.956400000000000000e+04
-5.908600000000000000e+04
-5.305600000000000000e+04
-4.986800000000000000e+04
-5.406100000000000000e+04
-5.980800000000000000e+04
-5.920200000000000000e+04
-5.316400000000000000e+04
-5.010500000000000000e+04
-5.398700000000000000e+04
-5.966900000000000000e+04
-5.926100000000000000e+04
-5.307400000000000000e+04
-5.008700000000000000e+04
-5.400100000000000000e+04
-5.967200000000000000e+04
-5.937900000000000000e+04
-5.316800000000000000e+04
-5.006900000000000000e+04
-5.397200000000000000e+04
-5.982900000000000000e+04
-5.927100000000000000e+04
-5.316500000000000000e+04
-5.017900000000000000e+04
-5.401600000000000000e+04
-5.976100000000000000e+04
-5.925700000000000000e+04
-5.329900000000000000e+04
-5.022900000000000000e+04
-5.385800000000000000e+04
-5.967300000000000000e+04
-5.935500000000000000e+04
-5.336400000000000000e+04
-5.021200000000000000e+04
-5.400200000000000000e+04
-5.982300000000000000e+04
-5.944400000000000000e+04
-5.345400000000000000e+04
-5.025300000000000000e+04
-5.393100000000000000e+04
-5.990200000000000000e+04
-5.957200000000000000e+04
-5.351200000000000000e+04
-5.035300000000000000e+04
-5.406900000000000000e+04
-5.988900000000000000e+04
-5.960200000000000000e+04
-5.354400000000000000e+04
-5.040000000000000000e+04
-5.422900000000000000e+04
-6.018400000000000000e+04
-5.964100000000000000e+04
-5.355000000000000000e+04
-5.042400000000000000e+04
-5.414200000000000000e+04
-5.981100000000000000e+04
-5.963400000000000000e+04
-5.370200000000000000e+04
-5.030500000000000000e+04
-5.404700000000000000e+04
-6.018700000000000000e+04
-5.997700000000000000e+04
-5.425000000000000000e+04
-5.092800000000000000e+04
-5.409400000000000000e+04
-5.984900000000000000e+04
-5.968700000000000000e+04
-5.355300000000000000e+04
-5.035200000000000000e+04
-5.384200000000000000e+04
-5.960000000000000000e+04
-5.954400000000000000e+04
-5.360200000000000000e+04
-5.024700000000000000e+04
-5.372700000000000000e+04
-5.949200000000000000e+04
-5.933400000000000000e+04
-5.339100000000000000e+04
-5.006100000000000000e+04
-5.369300000000000000e+04
-5.956600000000000000e+04
-5.909600000000000000e+04
-5.301700000000000000e+04
-4.978700000000000000e+04
-5.327600000000000000e+04
-5.908900000000000000e+04
-5.893700000000000000e+04
-5.299300000000000000e+04
-4.951300000000000000e+04
-5.277600000000000000e+04
-5.860400000000000000e+04
-5.847600000000000000e+04
-5.247200000000000000e+04
-4.887700000000000000e+04
-5.222100000000000000e+04
-5.796700000000000000e+04
-5.785700000000000000e+04
-5.188700000000000000e+04
-4.859700000000000000e+04
-5.191600000000000000e+04
-5.765700000000000000e+04
-5.743500000000000000e+04
-5.172900000000000000e+04
-4.831900000000000000e+04
-5.162500000000000000e+04
-5.721500000000000000e+04
-5.733100000000000000e+04
-5.165200000000000000e+04
-4.836100000000000000e+04
-5.161700000000000000e+04
-5.732700000000000000e+04
-5.740700000000000000e+04
-5.152800000000000000e+04
-4.820400000000000000e+04
-5.147600000000000000e+04
-5.720100000000000000e+04
-5.740100000000000000e+04
-5.194400000000000000e+04
-4.862700000000000000e+04
-5.179600000000000000e+04
-5.756200000000000000e+04
-5.764300000000000000e+04
-5.200600000000000000e+04
-4.881500000000000000e+04
-5.219100000000000000e+04
-5.773700000000000000e+04
-5.770000000000000000e+04
-5.210600000000000000e+04
-4.903400000000000000e+04
-5.238900000000000000e+04
-5.779600000000000000e+04
-5.768100000000000000e+04
-5.214200000000000000e+04
-4.890100000000000000e+04
-5.214700000000000000e+04
-5.764600000000000000e+04
-5.756700000000000000e+04
-5.203800000000000000e+04
-4.877300000000000000e+04
-5.198800000000000000e+04
-5.753900000000000000e+04
-5.743600000000000000e+04
-5.186700000000000000e+04
-4.861400000000000000e+04
-5.189000000000000000e+04
-5.737600000000000000e+04
-5.744900000000000000e+04
-5.200600000000000000e+04
-4.867000000000000000e+04
-5.188500000000000000e+04
-5.732400000000000000e+04
-5.735500000000000000e+04
-5.185000000000000000e+04
-4.858700000000000000e+04
-5.176700000000000000e+04
-5.732100000000000000e+04
-5.739900000000000000e+04
-5.185700000000000000e+04
-4.852600000000000000e+04
-5.173800000000000000e+04
-5.728600000000000000e+04
-5.735900000000000000e+04
-5.191100000000000000e+04
-4.839600000000000000e+04
-5.153600000000000000e+04
-5.710000000000000000e+04
-5.723900000000000000e+04
-5.173600000000000000e+04
-4.839200000000000000e+04
-5.142200000000000000e+04
-5.699600000000000000e+04
-5.713900000000000000e+04
-5.167500000000000000e+04
-4.829600000000000000e+04
-5.138400000000000000e+04
-5.695200000000000000e+04
-5.713600000000000000e+04
-5.166200000000000000e+04
-4.822000000000000000e+04
-5.129900000000000000e+04
-5.692200000000000000e+04
-5.724700000000000000e+04
-5.156100000000000000e+04
-4.813000000000000000e+04
-5.122300000000000000e+04
-5.679800000000000000e+04
-5.706000000000000000e+04
-5.157300000000000000e+04
-4.832500000000000000e+04
-5.125200000000000000e+04
-5.682900000000000000e+04
-5.714200000000000000e+04
-5.161700000000000000e+04
-4.798100000000000000e+04
-5.103600000000000000e+04
-5.668100000000000000e+04
-5.700200000000000000e+04
-5.156100000000000000e+04
-4.805300000000000000e+04
-5.110100000000000000e+04
-5.666400000000000000e+04
-5.698100000000000000e+04
-5.156100000000000000e+04
-4.797400000000000000e+04
-5.096000000000000000e+04
-5.661200000000000000e+04
-5.690700000000000000e+04
-5.158100000000000000e+04
-4.795800000000000000e+04
-5.084700000000000000e+04
-5.654900000000000000e+04
-5.694500000000000000e+04
-5.160100000000000000e+04
-4.779200000000000000e+04
-5.064700000000000000e+04
-5.639200000000000000e+04
-5.678200000000000000e+04
-5.142600000000000000e+04
-4.771900000000000000e+04
-5.071500000000000000e+04
-5.636900000000000000e+04
-5.670600000000000000e+04
-5.129900000000000000e+04
-4.770500000000000000e+04
-5.059600000000000000e+04
-5.627400000000000000e+04
-5.676300000000000000e+04
-5.140600000000000000e+04
-4.771300000000000000e+04
-5.054700000000000000e+04
-5.624200000000000000e+04
-5.677300000000000000e+04
-5.141600000000000000e+04
-4.769100000000000000e+04
-5.051800000000000000e+04
-5.623200000000000000e+04
-5.679700000000000000e+04
-5.142400000000000000e+04
-4.768400000000000000e+04
-5.045400000000000000e+04
-5.607600000000000000e+04
-5.674400000000000000e+04
-5.134800000000000000e+04
-4.761900000000000000e+04
-5.036600000000000000e+04
-5.613700000000000000e+04
-5.678200000000000000e+04
-5.131900000000000000e+04
-4.750700000000000000e+04
-5.030700000000000000e+04
-5.606100000000000000e+04
-5.671300000000000000e+04
-5.141400000000000000e+04
-4.757700000000000000e+04
-5.032400000000000000e+04
-5.603000000000000000e+04
-5.674400000000000000e+04
-5.149700000000000000e+04
-4.745700000000000000e+04
-5.019900000000000000e+04
-5.594300000000000000e+04
-5.669700000000000000e+04
-5.140700000000000000e+04
-4.752200000000000000e+04
-5.022900000000000000e+04
-5.598900000000000000e+04
-5.664200000000000000e+04
-5.142100000000000000e+04
-4.752700000000000000e+04
-5.012700000000000000e+04
-5.590400000000000000e+04
-5.674200000000000000e+04
-5.143700000000000000e+04
-4.753900000000000000e+04
-5.012900000000000000e+04
-5.575000000000000000e+04
-5.667000000000000000e+04
-5.146200000000000000e+04
-4.744100000000000000e+04
-5.000400000000000000e+04
-5.581600000000000000e+04
-5.667400000000000000e+04
-5.145500000000000000e+04
-4.741200000000000000e+04
-4.998600000000000000e+04
-5.585100000000000000e+04
-5.670100000000000000e+04
-5.147300000000000000e+04
-4.741200000000000000e+04
-4.998400000000000000e+04
-5.577500000000000000e+04
-5.658100000000000000e+04
-5.142300000000000000e+04
-4.739200000000000000e+04
-4.989100000000000000e+04
-5.571100000000000000e+04
-5.664700000000000000e+04
-5.147600000000000000e+04
-4.744100000000000000e+04
-4.988000000000000000e+04
-5.568400000000000000e+04
-5.670200000000000000e+04
-5.159900000000000000e+04
-4.738000000000000000e+04
-4.980600000000000000e+04
-5.569200000000000000e+04
-5.667900000000000000e+04
-5.152900000000000000e+04
-4.745100000000000000e+04
-4.978500000000000000e+04
-5.554900000000000000e+04
-5.663200000000000000e+04
-5.153700000000000000e+04
-4.743100000000000000e+04
-4.983600000000000000e+04
-5.570200000000000000e+04
-5.689200000000000000e+04
-5.162200000000000000e+04
-4.749100000000000000e+04
-4.978100000000000000e+04
-5.555200000000000000e+04
-5.662100000000000000e+04
-5.159200000000000000e+04
-4.739400000000000000e+04
-4.971800000000000000e+04
-5.552600000000000000e+04
-5.664600000000000000e+04
-5.158700000000000000e+04
-4.741700000000000000e+04
-4.972900000000000000e+04
-5.554300000000000000e+04
-5.662300000000000000e+04
-5.156700000000000000e+04
-4.736900000000000000e+04
-4.965700000000000000e+04
-5.545900000000000000e+04
-5.669200000000000000e+04
-5.161100000000000000e+04
-4.731100000000000000e+04
-4.959900000000000000e+04
-5.542500000000000000e+04
-5.660300000000000000e+04
-5.158700000000000000e+04
-4.736200000000000000e+04
-4.970400000000000000e+04
-5.550200000000000000e+04
-5.665600000000000000e+04
-5.153500000000000000e+04
-4.728900000000000000e+04
-4.951400000000000000e+04
-5.533200000000000000e+04
-5.660200000000000000e+04
-5.167200000000000000e+04
-4.732900000000000000e+04
-4.951600000000000000e+04
-5.532100000000000000e+04
-5.664600000000000000e+04
-5.168200000000000000e+04
-4.734400000000000000e+04
-4.955200000000000000e+04
-5.535500000000000000e+04
-5.661100000000000000e+04
-5.167400000000000000e+04
-4.738600000000000000e+04
-4.948100000000000000e+04
-5.521500000000000000e+04
-5.661700000000000000e+04
-5.173400000000000000e+04
-4.735700000000000000e+04
-4.947800000000000000e+04
-5.521900000000000000e+04
-5.665200000000000000e+04
-5.170600000000000000e+04
-4.730900000000000000e+04
-4.942600000000000000e+04
-5.519700000000000000e+04
-5.661700000000000000e+04
-5.180000000000000000e+04
-4.741900000000000000e+04
-4.945200000000000000e+04
-5.516500000000000000e+04
-5.655500000000000000e+04
-5.173800000000000000e+04
-4.730800000000000000e+04
-4.933900000000000000e+04
-5.515500000000000000e+04
-5.664200000000000000e+04
-5.181400000000000000e+04
-4.740800000000000000e+04
-4.941600000000000000e+04
-5.520900000000000000e+04
-5.668600000000000000e+04
-5.178400000000000000e+04
-4.728200000000000000e+04
-4.927200000000000000e+04
-5.508300000000000000e+04
-5.664600000000000000e+04
-5.183900000000000000e+04
-4.733000000000000000e+04
-4.925900000000000000e+04
-5.509100000000000000e+04
-5.674100000000000000e+04
-5.195400000000000000e+04
-4.729000000000000000e+04
-4.924900000000000000e+04
-5.505800000000000000e+04
-5.663800000000000000e+04
-5.189400000000000000e+04
-4.738100000000000000e+04
-4.929600000000000000e+04
-5.501700000000000000e+04
-5.661500000000000000e+04
-5.192700000000000000e+04
-4.737800000000000000e+04
-4.920200000000000000e+04
-5.502400000000000000e+04
-5.671000000000000000e+04
-5.197900000000000000e+04
-4.743900000000000000e+04
-4.926200000000000000e+04
-5.499300000000000000e+04
-5.670000000000000000e+04
-5.202100000000000000e+04
-4.737100000000000000e+04
-4.918300000000000000e+04
-5.499900000000000000e+04
-5.669400000000000000e+04
-5.213500000000000000e+04
-4.750300000000000000e+04
-4.902900000000000000e+04
-5.491100000000000000e+04
-5.669100000000000000e+04
-5.198500000000000000e+04
-4.738200000000000000e+04
-4.905700000000000000e+04
-5.487600000000000000e+04
-5.668200000000000000e+04
-5.206000000000000000e+04
-4.737200000000000000e+04
-4.908100000000000000e+04
-5.493000000000000000e+04
-5.676900000000000000e+04
-5.208800000000000000e+04
-4.742500000000000000e+04
-4.937700000000000000e+04
-5.494700000000000000e+04
-5.671600000000000000e+04
-5.213800000000000000e+04
-4.745400000000000000e+04
-4.910200000000000000e+04
-5.480600000000000000e+04
-5.677300000000000000e+04
-5.220200000000000000e+04
-4.746900000000000000e+04
-4.905400000000000000e+04
-5.486800000000000000e+04
-5.671800000000000000e+04
-5.223800000000000000e+04
-4.748100000000000000e+04
-4.907500000000000000e+04
-5.486400000000000000e+04
-5.678400000000000000e+04
-5.223100000000000000e+04
-4.736700000000000000e+04
-4.895800000000000000e+04
-5.481900000000000000e+04
-5.678700000000000000e+04
-5.217600000000000000e+04
-4.739400000000000000e+04
-4.896000000000000000e+04
-5.478300000000000000e+04
-5.679300000000000000e+04
-5.227500000000000000e+04
-4.743800000000000000e+04
-4.898000000000000000e+04
-5.480600000000000000e+04
-5.680400000000000000e+04
-5.227400000000000000e+04
-4.745800000000000000e+04
-4.896600000000000000e+04
-5.475400000000000000e+04
-5.678900000000000000e+04
-5.233700000000000000e+04
-4.756000000000000000e+04
-4.894500000000000000e+04
-5.469600000000000000e+04
-5.679700000000000000e+04
-5.240400000000000000e+04
-4.756200000000000000e+04
-4.894100000000000000e+04
-5.457700000000000000e+04
-5.667900000000000000e+04
-5.229800000000000000e+04
-4.742500000000000000e+04
-4.884300000000000000e+04
-5.467500000000000000e+04
-5.682800000000000000e+04
-5.226700000000000000e+04
-4.741600000000000000e+04
-4.879700000000000000e+04
-5.458300000000000000e+04
-5.677000000000000000e+04
-5.237400000000000000e+04
-4.743400000000000000e+04
-4.877800000000000000e+04
-5.456300000000000000e+04
-5.679300000000000000e+04
-5.238900000000000000e+04
-4.741900000000000000e+04
-4.877500000000000000e+04
-5.454900000000000000e+04
-5.677100000000000000e+04
-5.244300000000000000e+04
-4.747100000000000000e+04
-4.879900000000000000e+04
-5.447800000000000000e+04
-5.677100000000000000e+04
-5.244700000000000000e+04
-4.745700000000000000e+04
-4.874400000000000000e+04
-5.453400000000000000e+04
-5.672400000000000000e+04
-5.247500000000000000e+04
-4.743200000000000000e+04
-4.868500000000000000e+04
-5.443400000000000000e+04
-5.670100000000000000e+04
-5.243400000000000000e+04
-4.744100000000000000e+04
-4.860600000000000000e+04
-5.433100000000000000e+04
-5.671900000000000000e+04
-5.247700000000000000e+04
-4.743100000000000000e+04
-4.861400000000000000e+04
-5.436900000000000000e+04
-5.673700000000000000e+04
-5.250900000000000000e+04
-4.745600000000000000e+04
-4.865300000000000000e+04
-5.441600000000000000e+04
-5.668400000000000000e+04
-5.247600000000000000e+04
-4.746900000000000000e+04
-4.853900000000000000e+04
-5.427500000000000000e+04
-5.672600000000000000e+04
-5.258400000000000000e+04
-4.751000000000000000e+04
-4.852600000000000000e+04
-5.430900000000000000e+04
-5.669700000000000000e+04
-5.250500000000000000e+04
-4.743400000000000000e+04
-4.854600000000000000e+04
-5.425900000000000000e+04
-5.675000000000000000e+04
-5.256400000000000000e+04
-4.739200000000000000e+04
-4.847600000000000000e+04
-5.427600000000000000e+04
-5.674600000000000000e+04
-5.260600000000000000e+04
-4.742500000000000000e+04
-4.844100000000000000e+04
-5.419500000000000000e+04
-5.674700000000000000e+04
-5.265700000000000000e+04
-4.747900000000000000e+04
-4.849900000000000000e+04
-5.417500000000000000e+04
-5.676400000000000000e+04
-5.301100000000000000e+04
-4.784400000000000000e+04
-4.855900000000000000e+04
-5.411600000000000000e+04
-5.677600000000000000e+04
-5.267900000000000000e+04
-4.748500000000000000e+04
-4.844400000000000000e+04
-5.410700000000000000e+04
-5.672200000000000000e+04
-5.272400000000000000e+04
-4.748700000000000000e+04
-4.840100000000000000e+04
-5.411100000000000000e+04
-5.674800000000000000e+04
-5.273400000000000000e+04
-4.749600000000000000e+04
-4.841900000000000000e+04
-5.408900000000000000e+04
-5.674600000000000000e+04
-5.275600000000000000e+04
-4.755200000000000000e+04
-4.844600000000000000e+04
-5.401400000000000000e+04
-5.677200000000000000e+04
-5.282600000000000000e+04
-4.752500000000000000e+04
-4.839700000000000000e+04
-5.404600000000000000e+04
-5.680400000000000000e+04
-5.290200000000000000e+04
-4.754200000000000000e+04
-4.837600000000000000e+04
-5.407100000000000000e+04
-5.678300000000000000e+04
-5.288100000000000000e+04
-4.765600000000000000e+04
-4.846200000000000000e+04
-5.394600000000000000e+04
-5.678200000000000000e+04
-5.286900000000000000e+04
-4.757600000000000000e+04
-4.834100000000000000e+04
-5.402700000000000000e+04
-5.679200000000000000e+04
-5.290000000000000000e+04
-4.760700000000000000e+04
-4.834700000000000000e+04
-5.399200000000000000e+04
-5.686700000000000000e+04
-5.295600000000000000e+04
-4.754400000000000000e+04
-4.829400000000000000e+04
-5.394600000000000000e+04
-5.678200000000000000e+04
-5.302600000000000000e+04
-4.761100000000000000e+04
-4.826200000000000000e+04
-5.391900000000000000e+04
-5.678900000000000000e+04
-5.297600000000000000e+04
-4.760500000000000000e+04
-4.825600000000000000e+04
-5.390200000000000000e+04
-5.678900000000000000e+04
-5.301500000000000000e+04
-4.763100000000000000e+04
-4.825400000000000000e+04
-5.394500000000000000e+04
-5.688400000000000000e+04
-5.296200000000000000e+04
-4.756700000000000000e+04
-4.818800000000000000e+04
-5.385100000000000000e+04
-5.682400000000000000e+04
-5.300200000000000000e+04
-4.757800000000000000e+04
-4.817700000000000000e+04
-5.385700000000000000e+04
-5.679500000000000000e+04
-5.302700000000000000e+04
-4.753000000000000000e+04
-4.810100000000000000e+04
-5.383500000000000000e+04
-5.686600000000000000e+04
-5.299200000000000000e+04
-4.763600000000000000e+04
-4.808800000000000000e+04
-5.367500000000000000e+04
-5.674500000000000000e+04
-5.324700000000000000e+04
-4.768900000000000000e+04
-4.778400000000000000e+04
-5.355100000000000000e+04
-5.691500000000000000e+04
-5.328700000000000000e+04
-4.787900000000000000e+04
-4.823400000000000000e+04
-5.359200000000000000e+04
-5.672900000000000000e+04
-5.317200000000000000e+04
-4.759200000000000000e+04
-4.802700000000000000e+04
-5.360700000000000000e+04
-5.668200000000000000e+04
-5.312200000000000000e+04
-4.773600000000000000e+04
-4.806200000000000000e+04
-5.361900000000000000e+04
-5.681000000000000000e+04
-5.341000000000000000e+04
-4.755100000000000000e+04
-4.773200000000000000e+04
-5.347200000000000000e+04
-5.676400000000000000e+04
-5.323400000000000000e+04
-4.749500000000000000e+04
-4.786900000000000000e+04
-5.344200000000000000e+04
-5.668800000000000000e+04
-5.333900000000000000e+04
-4.774600000000000000e+04
-4.778600000000000000e+04
-5.322100000000000000e+04
-5.682200000000000000e+04
-5.358200000000000000e+04
-4.775500000000000000e+04
-4.760400000000000000e+04
-5.344800000000000000e+04
-5.716000000000000000e+04
-5.348500000000000000e+04
-4.768900000000000000e+04
-4.760900000000000000e+04
-5.322500000000000000e+04
-5.653000000000000000e+04
-5.349500000000000000e+04
-4.777100000000000000e+04
-4.749900000000000000e+04
-5.294900000000000000e+04
-5.679400000000000000e+04
-5.352400000000000000e+04
-4.773900000000000000e+04
-4.746000000000000000e+04
-5.265200000000000000e+04
-5.658100000000000000e+04
-5.376300000000000000e+04
-4.758600000000000000e+04
-4.753200000000000000e+04
-5.327700000000000000e+04
-5.691100000000000000e+04
-5.361600000000000000e+04
-4.777200000000000000e+04
-4.771400000000000000e+04
-5.354600000000000000e+04
-5.727700000000000000e+04
-5.383100000000000000e+04
-4.817900000000000000e+04
-4.812200000000000000e+04
-5.371500000000000000e+04
-5.774600000000000000e+04
-5.458700000000000000e+04
-4.881700000000000000e+04
-4.867800000000000000e+04
-5.443300000000000000e+04
-5.821400000000000000e+04
-5.528900000000000000e+04
-4.933900000000000000e+04
-4.913000000000000000e+04
-5.489600000000000000e+04
-5.885500000000000000e+04
-5.585700000000000000e+04
-4.994700000000000000e+04
-4.953800000000000000e+04
-5.504400000000000000e+04
-5.946300000000000000e+04
-5.619600000000000000e+04
-5.010900000000000000e+04
-4.992100000000000000e+04
-5.574400000000000000e+04
-5.992400000000000000e+04
-5.692600000000000000e+04
-5.083600000000000000e+04
-5.070700000000000000e+04
-5.635600000000000000e+04
-6.021000000000000000e+04
-5.714600000000000000e+04
-5.106200000000000000e+04
-5.074900000000000000e+04
-5.643100000000000000e+04
-6.047700000000000000e+04
-5.738400000000000000e+04
-5.136200000000000000e+04
-5.093700000000000000e+04
-5.664000000000000000e+04
-6.105700000000000000e+04
-5.785700000000000000e+04
-5.176000000000000000e+04
-5.140800000000000000e+04
-5.698000000000000000e+04
-6.118400000000000000e+04
-5.824800000000000000e+04
-5.215600000000000000e+04
-5.172600000000000000e+04
-5.735100000000000000e+04
-6.152300000000000000e+04
-5.856700000000000000e+04
-5.236500000000000000e+04
-5.177300000000000000e+04
-5.748700000000000000e+04
-6.192200000000000000e+04
-5.887900000000000000e+04
-5.249100000000000000e+04
-5.193600000000000000e+04
-5.759200000000000000e+04
-6.173900000000000000e+04
-5.877300000000000000e+04
-5.254800000000000000e+04
-5.212300000000000000e+04
-5.767000000000000000e+04
-6.193800000000000000e+04
-5.904900000000000000e+04
-5.280200000000000000e+04
-5.221400000000000000e+04
-5.777300000000000000e+04
-6.206700000000000000e+04
-5.919100000000000000e+04
-5.286900000000000000e+04
-5.226600000000000000e+04
-5.774900000000000000e+04
-6.204600000000000000e+04
-5.923200000000000000e+04
-5.292200000000000000e+04
-5.231400000000000000e+04
-5.775800000000000000e+04
-6.201100000000000000e+04
-5.922300000000000000e+04
-5.300600000000000000e+04
-5.220700000000000000e+04
-5.774400000000000000e+04
-6.210900000000000000e+04
-5.934100000000000000e+04
-5.313100000000000000e+04
-5.236900000000000000e+04
-5.773900000000000000e+04
-6.205200000000000000e+04
-5.927100000000000000e+04
-5.312600000000000000e+04
-5.236600000000000000e+04
-5.784000000000000000e+04
-6.209100000000000000e+04
-5.938100000000000000e+04
-5.316600000000000000e+04
-5.229600000000000000e+04
-5.781000000000000000e+04
-6.218700000000000000e+04
-5.940400000000000000e+04
-5.324900000000000000e+04
-5.266300000000000000e+04
-5.786800000000000000e+04
-6.222400000000000000e+04
-5.947700000000000000e+04
-5.324700000000000000e+04
-5.238400000000000000e+04
-5.782100000000000000e+04
-6.228600000000000000e+04
-5.957100000000000000e+04
-5.331400000000000000e+04
-5.246800000000000000e+04
-5.784100000000000000e+04
-6.217800000000000000e+04
-5.968700000000000000e+04
-5.351800000000000000e+04
-5.261200000000000000e+04
-5.784100000000000000e+04
-6.231800000000000000e+04
-5.962200000000000000e+04
-5.343700000000000000e+04
-5.254800000000000000e+04
-5.784600000000000000e+04
-6.241600000000000000e+04
-5.972400000000000000e+04
-5.336700000000000000e+04
-5.242900000000000000e+04
-5.785700000000000000e+04
-6.239100000000000000e+04
-5.984400000000000000e+04
-5.361200000000000000e+04
-5.270700000000000000e+04
-5.785300000000000000e+04
-6.239900000000000000e+04
-5.986100000000000000e+04
-5.358200000000000000e+04
-5.262400000000000000e+04
-5.804200000000000000e+04
-6.262000000000000000e+04
-6.004700000000000000e+04
-5.380000000000000000e+04
-5.264900000000000000e+04
-5.792700000000000000e+04
-6.248400000000000000e+04
-6.005200000000000000e+04
-5.379400000000000000e+04
-5.275200000000000000e+04
-5.806600000000000000e+04
-6.258400000000000000e+04
-6.016600000000000000e+04
-5.388600000000000000e+04
-5.283800000000000000e+04
-5.803200000000000000e+04
-6.267600000000000000e+04
-6.028300000000000000e+04
-5.395400000000000000e+04
-5.286100000000000000e+04
-5.817700000000000000e+04
-6.272700000000000000e+04
-6.026900000000000000e+04
-5.399900000000000000e+04
-5.287000000000000000e+04
-5.814600000000000000e+04
-6.282300000000000000e+04
-6.042400000000000000e+04
-5.414300000000000000e+04
-5.300700000000000000e+04
-5.819700000000000000e+04
-6.283700000000000000e+04
-6.053400000000000000e+04
-5.418100000000000000e+04
-5.295900000000000000e+04
-5.824600000000000000e+04
-6.292200000000000000e+04
-6.053400000000000000e+04
-5.417900000000000000e+04
-5.299100000000000000e+04
-5.820200000000000000e+04
-6.291900000000000000e+04
-6.052000000000000000e+04
-5.420800000000000000e+04
-5.289100000000000000e+04
-5.810300000000000000e+04
-6.287300000000000000e+04
-6.054700000000000000e+04
-5.427100000000000000e+04
-5.302300000000000000e+04
-5.831700000000000000e+04
-6.295400000000000000e+04
-6.030400000000000000e+04
-5.386900000000000000e+04
-5.256300000000000000e+04
-5.781200000000000000e+04
-6.254200000000000000e+04
-6.028600000000000000e+04
-5.394600000000000000e+04
-5.250200000000000000e+04
-5.760200000000000000e+04
-6.230900000000000000e+04
-6.005700000000000000e+04
-5.370900000000000000e+04
-5.238400000000000000e+04
-5.744800000000000000e+04
-6.196400000000000000e+04
-5.979100000000000000e+04
-5.344500000000000000e+04
-5.198400000000000000e+04
-5.716600000000000000e+04
-6.184900000000000000e+04
-5.966100000000000000e+04
-5.310200000000000000e+04
-5.159400000000000000e+04
-5.673200000000000000e+04
-6.145000000000000000e+04
-5.917800000000000000e+04
-5.276500000000000000e+04
-5.121400000000000000e+04
-5.627200000000000000e+04
-6.091300000000000000e+04
-5.864900000000000000e+04
-5.231300000000000000e+04
-5.094200000000000000e+04
-5.601600000000000000e+04
-6.082600000000000000e+04
-5.890700000000000000e+04
-5.270100000000000000e+04
-5.115600000000000000e+04
-5.608600000000000000e+04
-6.099400000000000000e+04
-5.905000000000000000e+04
-5.259100000000000000e+04
-5.103100000000000000e+04
-5.587700000000000000e+04
