-8.924400000000000000e+04
-8.527000000000000000e+04
-8.690400000000000000e+04
-9.150500000000000000e+04
-9.306800000000000000e+04
-8.927400000000000000e+04
-8.525600000000000000e+04
-8.683300000000000000e+04
-9.148900000000000000e+04
-9.307100000000000000e+04
-8.923100000000000000e+04
-8.515600000000000000e+04
-8.680600000000000000e+04
-9.149200000000000000e+04
-9.308400000000000000e+04
-8.933900000000000000e+04
-8.525600000000000000e+04
-8.672400000000000000e+04
-9.142300000000000000e+04
-9.305200000000000000e+04
-8.928100000000000000e+04
-8.520400000000000000e+04
-8.666500000000000000e+04
-9.130800000000000000e+04
-9.286600000000000000e+04
-8.899100000000000000e+04
-8.490100000000000000e+04
-8.636100000000000000e+04
-9.110900000000000000e+04
-9.284900000000000000e+04
-8.916900000000000000e+04
-8.509400000000000000e+04
-8.650500000000000000e+04
-9.122000000000000000e+04
-9.298900000000000000e+04
-8.927400000000000000e+04
-8.515500000000000000e+04
-8.655600000000000000e+04
-9.124700000000000000e+04
-9.304900000000000000e+04
-8.933600000000000000e+04
-8.520900000000000000e+04
-8.652000000000000000e+04
-9.125600000000000000e+04
-9.307900000000000000e+04
-8.929300000000000000e+04
-8.514600000000000000e+04
-8.651500000000000000e+04
-9.120100000000000000e+04
-9.301200000000000000e+04
-8.937200000000000000e+04
-8.521200000000000000e+04
-8.654900000000000000e+04
-9.121900000000000000e+04
-9.298200000000000000e+04
-8.933900000000000000e+04
-8.518000000000000000e+04
-8.648500000000000000e+04
-9.116800000000000000e+04
-9.297200000000000000e+04
-8.936500000000000000e+04
-8.519600000000000000e+04
-8.643500000000000000e+04
-9.112100000000000000e+04
-9.303100000000000000e+04
-8.941600000000000000e+04
-8.520800000000000000e+04
-8.667700000000000000e+04
-9.157700000000000000e+04
-9.308400000000000000e+04
-8.946200000000000000e+04
-8.519700000000000000e+04
-8.636000000000000000e+04
-9.103400000000000000e+04
-9.303900000000000000e+04
-8.945400000000000000e+04
-8.523400000000000000e+04
-8.635200000000000000e+04
-9.095600000000000000e+04
-9.294000000000000000e+04
-8.948400000000000000e+04
-8.523900000000000000e+04
-8.637500000000000000e+04
-9.106600000000000000e+04
-9.305300000000000000e+04
-8.944000000000000000e+04
-8.519500000000000000e+04
-8.632400000000000000e+04
-9.098900000000000000e+04
-9.303500000000000000e+04
-8.950100000000000000e+04
-8.532000000000000000e+04
-8.641500000000000000e+04
-9.087200000000000000e+04
-9.299400000000000000e+04
-8.950400000000000000e+04
-8.521200000000000000e+04
-8.623800000000000000e+04
-9.087600000000000000e+04
-9.300700000000000000e+04
-8.957200000000000000e+04
-8.526200000000000000e+04
-8.629500000000000000e+04
-9.093800000000000000e+04
-9.305100000000000000e+04
-8.960200000000000000e+04
-8.528800000000000000e+04
-8.628900000000000000e+04
-9.086100000000000000e+04
-9.301900000000000000e+04
-8.959000000000000000e+04
-8.525900000000000000e+04
-8.625700000000000000e+04
-9.091400000000000000e+04
-9.309900000000000000e+04
-8.961600000000000000e+04
-8.530400000000000000e+04
-8.627500000000000000e+04
-9.087100000000000000e+04
-9.301400000000000000e+04
-8.961100000000000000e+04
-8.533000000000000000e+04
-8.621400000000000000e+04
-9.080000000000000000e+04
-9.299900000000000000e+04
-8.965400000000000000e+04
-8.525100000000000000e+04
-8.616700000000000000e+04
-9.077000000000000000e+04
-9.300600000000000000e+04
-8.961700000000000000e+04
-8.528400000000000000e+04
-8.613100000000000000e+04
-9.073900000000000000e+04
-9.297100000000000000e+04
-8.962400000000000000e+04
-8.526200000000000000e+04
-8.611100000000000000e+04
-9.069400000000000000e+04
-9.295400000000000000e+04
-8.964500000000000000e+04
-8.528200000000000000e+04
-8.612100000000000000e+04
-9.071400000000000000e+04
-9.292600000000000000e+04
-8.962400000000000000e+04
-8.524400000000000000e+04
-8.602600000000000000e+04
-9.063500000000000000e+04
-9.299200000000000000e+04
-8.969400000000000000e+04
-8.530000000000000000e+04
-8.606600000000000000e+04
-9.066000000000000000e+04
-9.296300000000000000e+04
-8.970800000000000000e+04
-8.533600000000000000e+04
-8.603600000000000000e+04
-9.064900000000000000e+04
-9.301500000000000000e+04
-8.972600000000000000e+04
-8.526900000000000000e+04
-8.598400000000000000e+04
-9.057000000000000000e+04
-9.297200000000000000e+04
-8.969600000000000000e+04
-8.534100000000000000e+04
-8.600100000000000000e+04
-9.054200000000000000e+04
-9.297700000000000000e+04
-8.967700000000000000e+04
-8.529600000000000000e+04
-8.595400000000000000e+04
-9.054900000000000000e+04
-9.294500000000000000e+04
-8.973900000000000000e+04
-8.533900000000000000e+04
-8.596800000000000000e+04
-9.056200000000000000e+04
-9.295200000000000000e+04
-8.980600000000000000e+04
-8.540600000000000000e+04
-8.601600000000000000e+04
-9.056400000000000000e+04
-9.293900000000000000e+04
-8.988200000000000000e+04
-8.547100000000000000e+04
-8.593100000000000000e+04
-9.049000000000000000e+04
-9.300300000000000000e+04
-8.991600000000000000e+04
-8.552700000000000000e+04
-8.593900000000000000e+04
-9.049800000000000000e+04
-9.307200000000000000e+04
-8.988200000000000000e+04
-8.543100000000000000e+04
-8.593700000000000000e+04
-9.047300000000000000e+04
-9.299700000000000000e+04
-8.991600000000000000e+04
-8.547700000000000000e+04
-8.589600000000000000e+04
-9.041100000000000000e+04
-9.306000000000000000e+04
-8.991700000000000000e+04
-8.543500000000000000e+04
-8.580300000000000000e+04
-9.031700000000000000e+04
-9.296100000000000000e+04
-8.991900000000000000e+04
-8.539600000000000000e+04
-8.577400000000000000e+04
-9.032000000000000000e+04
-9.295000000000000000e+04
-8.988900000000000000e+04
-8.541900000000000000e+04
-8.579600000000000000e+04
-9.030700000000000000e+04
-9.289200000000000000e+04
-8.985600000000000000e+04
-8.539600000000000000e+04
-8.574600000000000000e+04
-9.021000000000000000e+04
-9.290700000000000000e+04
-8.998300000000000000e+04
-8.545600000000000000e+04
-8.568300000000000000e+04
-9.020400000000000000e+04
-9.292100000000000000e+04
-9.001000000000000000e+04
-8.553200000000000000e+04
-8.576700000000000000e+04
-9.011800000000000000e+04
-9.284600000000000000e+04
-8.997100000000000000e+04
-8.546000000000000000e+04
-8.567000000000000000e+04
-9.017000000000000000e+04
-9.294400000000000000e+04
-9.010300000000000000e+04
-8.549700000000000000e+04
-8.563200000000000000e+04
-9.018800000000000000e+04
-9.294600000000000000e+04
-9.008200000000000000e+04
-8.555200000000000000e+04
-8.572700000000000000e+04
-9.020300000000000000e+04
-9.297200000000000000e+04
-9.014600000000000000e+04
-8.557000000000000000e+04
-8.573700000000000000e+04
-9.017200000000000000e+04
-9.292300000000000000e+04
-9.015900000000000000e+04
-8.561200000000000000e+04
-8.573400000000000000e+04
-9.062700000000000000e+04
-9.319500000000000000e+04
-9.030600000000000000e+04
-8.563000000000000000e+04
-8.570800000000000000e+04
-9.015500000000000000e+04
-9.297100000000000000e+04
-9.025100000000000000e+04
-8.556600000000000000e+04
-8.553300000000000000e+04
-9.003000000000000000e+04
-9.298400000000000000e+04
-9.023100000000000000e+04
-8.562500000000000000e+04
-8.566400000000000000e+04
-9.003400000000000000e+04
-9.294800000000000000e+04
-9.021500000000000000e+04
-8.560900000000000000e+04
-8.558600000000000000e+04
-9.010200000000000000e+04
-9.297200000000000000e+04
-9.025900000000000000e+04
-8.569400000000000000e+04
-8.558000000000000000e+04
-8.993900000000000000e+04
-9.301000000000000000e+04
-9.035100000000000000e+04
-8.566400000000000000e+04
-8.555500000000000000e+04
-8.996200000000000000e+04
-9.301900000000000000e+04
-9.037100000000000000e+04
-8.574100000000000000e+04
-8.558900000000000000e+04
-9.001000000000000000e+04
-9.306100000000000000e+04
-9.040200000000000000e+04
-8.570800000000000000e+04
-8.552700000000000000e+04
-9.005700000000000000e+04
-9.309200000000000000e+04
-9.046500000000000000e+04
-8.579300000000000000e+04
-8.550600000000000000e+04
-8.994500000000000000e+04
-9.302700000000000000e+04
-9.051000000000000000e+04
-8.582400000000000000e+04
-8.555900000000000000e+04
-8.996700000000000000e+04
-9.302700000000000000e+04
-9.040900000000000000e+04
-8.576700000000000000e+04
-8.554700000000000000e+04
-8.983900000000000000e+04
-9.296000000000000000e+04
-9.039800000000000000e+04
-8.573400000000000000e+04
-8.545500000000000000e+04
-8.981000000000000000e+04
-9.292400000000000000e+04
-9.039400000000000000e+04
-8.569600000000000000e+04
-8.545700000000000000e+04
-8.977200000000000000e+04
-9.296500000000000000e+04
-9.042100000000000000e+04
-8.576400000000000000e+04
-8.538900000000000000e+04
-8.973600000000000000e+04
-9.288600000000000000e+04
-9.041200000000000000e+04
-8.581200000000000000e+04
-8.543700000000000000e+04
-8.970300000000000000e+04
-9.287700000000000000e+04
-9.044700000000000000e+04
-8.579900000000000000e+04
-8.530700000000000000e+04
-8.967900000000000000e+04
-9.293600000000000000e+04
-9.047100000000000000e+04
-8.581700000000000000e+04
-8.535500000000000000e+04
-8.965600000000000000e+04
-9.286200000000000000e+04
-9.047700000000000000e+04
-8.583200000000000000e+04
-8.535800000000000000e+04
-8.965500000000000000e+04
-9.286400000000000000e+04
-9.047200000000000000e+04
-8.586000000000000000e+04
-8.538000000000000000e+04
-8.961300000000000000e+04
-9.284500000000000000e+04
-9.048900000000000000e+04
-8.583600000000000000e+04
-8.533100000000000000e+04
-8.961200000000000000e+04
-9.284700000000000000e+04
-9.053400000000000000e+04
-8.585600000000000000e+04
-8.532100000000000000e+04
-8.952900000000000000e+04
-9.279300000000000000e+04
-9.051300000000000000e+04
-8.589900000000000000e+04
-8.523200000000000000e+04
-8.955700000000000000e+04
-9.283200000000000000e+04
-9.051100000000000000e+04
-8.585400000000000000e+04
-8.530700000000000000e+04
-8.962700000000000000e+04
-9.288600000000000000e+04
-9.055600000000000000e+04
-8.591400000000000000e+04
-8.538100000000000000e+04
-8.963100000000000000e+04
-9.289900000000000000e+04
-9.068700000000000000e+04
-8.590200000000000000e+04
-8.536200000000000000e+04
-8.965900000000000000e+04
-9.288900000000000000e+04
-9.075900000000000000e+04
-8.643400000000000000e+04
-8.549900000000000000e+04
-8.987400000000000000e+04
-9.306900000000000000e+04
-9.071900000000000000e+04
-8.606200000000000000e+04
-8.545700000000000000e+04
-8.964200000000000000e+04
-9.292600000000000000e+04
-9.070600000000000000e+04
-8.604500000000000000e+04
-8.531300000000000000e+04
-8.955400000000000000e+04
-9.296700000000000000e+04
-9.077400000000000000e+04
-8.605700000000000000e+04
-8.533900000000000000e+04
-8.957100000000000000e+04
-9.299400000000000000e+04
-9.083000000000000000e+04
-8.616100000000000000e+04
-8.531100000000000000e+04
-8.951600000000000000e+04
-9.297100000000000000e+04
-9.084100000000000000e+04
-8.612500000000000000e+04
-8.531400000000000000e+04
-8.952100000000000000e+04
-9.297100000000000000e+04
-9.087700000000000000e+04
-8.625200000000000000e+04
-8.539400000000000000e+04
-8.942200000000000000e+04
-9.294400000000000000e+04
-9.089000000000000000e+04
-8.615700000000000000e+04
-8.530100000000000000e+04
-8.950500000000000000e+04
-9.298700000000000000e+04
-9.092800000000000000e+04
-8.623100000000000000e+04
-8.535100000000000000e+04
-8.952700000000000000e+04
-9.303900000000000000e+04
-9.105400000000000000e+04
-8.624900000000000000e+04
-8.537400000000000000e+04
-8.948900000000000000e+04
-9.293900000000000000e+04
-9.099200000000000000e+04
-8.628200000000000000e+04
-8.533700000000000000e+04
-8.949100000000000000e+04
-9.306800000000000000e+04
-9.109100000000000000e+04
-8.629600000000000000e+04
-8.532000000000000000e+04
-8.946900000000000000e+04
-9.303800000000000000e+04
-9.108700000000000000e+04
-8.636600000000000000e+04
-8.536400000000000000e+04
-8.949800000000000000e+04
-9.307400000000000000e+04
-9.120600000000000000e+04
-8.640500000000000000e+04
-8.528400000000000000e+04
-8.940200000000000000e+04
-9.303100000000000000e+04
-9.116800000000000000e+04
-8.644100000000000000e+04
-8.534600000000000000e+04
-8.948000000000000000e+04
-9.309800000000000000e+04
-9.119900000000000000e+04
-8.645200000000000000e+04
-8.532700000000000000e+04
-8.944200000000000000e+04
-9.300300000000000000e+04
-9.119700000000000000e+04
-8.650300000000000000e+04
-8.533700000000000000e+04
-8.935000000000000000e+04
-9.304900000000000000e+04
-9.126200000000000000e+04
-8.656300000000000000e+04
-8.529200000000000000e+04
-8.937100000000000000e+04
-9.308400000000000000e+04
-9.135300000000000000e+04
-8.654400000000000000e+04
-8.530400000000000000e+04
-8.935700000000000000e+04
-9.308200000000000000e+04
-9.133200000000000000e+04
-8.658400000000000000e+04
-8.532000000000000000e+04
-8.937600000000000000e+04
-9.312200000000000000e+04
-9.136500000000000000e+04
-8.662700000000000000e+04
-8.534600000000000000e+04
-8.937500000000000000e+04
-9.308000000000000000e+04
-9.140500000000000000e+04
-8.670700000000000000e+04
-8.527100000000000000e+04
-8.928700000000000000e+04
-9.313700000000000000e+04
-9.149200000000000000e+04
-8.670200000000000000e+04
-8.530400000000000000e+04
-8.930000000000000000e+04
-9.304400000000000000e+04
-9.146200000000000000e+04
-8.671600000000000000e+04
-8.530900000000000000e+04
-8.928300000000000000e+04
-9.313600000000000000e+04
-9.157700000000000000e+04
-8.683100000000000000e+04
-8.528800000000000000e+04
-8.926400000000000000e+04
-9.312600000000000000e+04
-9.159800000000000000e+04
-8.684100000000000000e+04
-8.535000000000000000e+04
-8.931400000000000000e+04
-9.361300000000000000e+04
-9.199400000000000000e+04
-8.693700000000000000e+04
-8.530900000000000000e+04
-8.925200000000000000e+04
-9.314400000000000000e+04
-9.170700000000000000e+04
-8.693100000000000000e+04
-8.540200000000000000e+04
-8.928300000000000000e+04
-9.314200000000000000e+04
-9.173300000000000000e+04
-8.694700000000000000e+04
-8.534900000000000000e+04
-8.931500000000000000e+04
-9.318100000000000000e+04
-9.174600000000000000e+04
-8.693800000000000000e+04
-8.531200000000000000e+04
-8.928600000000000000e+04
-9.322000000000000000e+04
-9.170300000000000000e+04
-8.698600000000000000e+04
-8.537300000000000000e+04
-8.924500000000000000e+04
-9.316800000000000000e+04
-9.179900000000000000e+04
-8.705200000000000000e+04
-8.537900000000000000e+04
-8.927100000000000000e+04
-9.321700000000000000e+04
-9.178800000000000000e+04
-8.703800000000000000e+04
-8.536600000000000000e+04
-8.921300000000000000e+04
-9.317200000000000000e+04
-9.185600000000000000e+04
-8.714600000000000000e+04
-8.540000000000000000e+04
-8.925900000000000000e+04
-9.315700000000000000e+04
-9.186000000000000000e+04
-8.718800000000000000e+04
-8.536700000000000000e+04
-8.914600000000000000e+04
-9.318600000000000000e+04
-9.192100000000000000e+04
-8.714800000000000000e+04
-8.535200000000000000e+04
-8.915700000000000000e+04
-9.316000000000000000e+04
-9.194400000000000000e+04
-8.719900000000000000e+04
-8.537700000000000000e+04
-8.917100000000000000e+04
-9.314600000000000000e+04
-9.194900000000000000e+04
-8.721100000000000000e+04
-8.536100000000000000e+04
-8.917400000000000000e+04
-9.320400000000000000e+04
-9.187500000000000000e+04
-8.718000000000000000e+04
-8.533100000000000000e+04
-8.911600000000000000e+04
-9.319400000000000000e+04
-9.200800000000000000e+04
-8.724000000000000000e+04
-8.535600000000000000e+04
-8.909600000000000000e+04
-9.318100000000000000e+04
-9.206900000000000000e+04
-8.731100000000000000e+04
-8.541700000000000000e+04
-8.917700000000000000e+04
-9.316400000000000000e+04
-9.203400000000000000e+04
-8.740000000000000000e+04
-8.539600000000000000e+04
-8.909500000000000000e+04
-9.319600000000000000e+04
-9.212000000000000000e+04
-8.740600000000000000e+04
-8.544900000000000000e+04
-8.912200000000000000e+04
-9.326200000000000000e+04
-9.217200000000000000e+04
-8.745700000000000000e+04
-8.548700000000000000e+04
-8.911300000000000000e+04
-9.319500000000000000e+04
-9.218000000000000000e+04
-8.752200000000000000e+04
-8.552400000000000000e+04
-8.913700000000000000e+04
-9.322600000000000000e+04
-9.226100000000000000e+04
-8.755900000000000000e+04
-8.558700000000000000e+04
-8.912400000000000000e+04
-9.316400000000000000e+04
-9.220400000000000000e+04
-8.754200000000000000e+04
-8.550100000000000000e+04
-8.910100000000000000e+04
-9.320900000000000000e+04
-9.228700000000000000e+04
-8.759900000000000000e+04
-8.549200000000000000e+04
-8.909700000000000000e+04
-9.326200000000000000e+04
-9.237400000000000000e+04
-8.765700000000000000e+04
-8.549200000000000000e+04
-8.913300000000000000e+04
-9.326000000000000000e+04
-9.235600000000000000e+04
-8.766700000000000000e+04
-8.553400000000000000e+04
-8.906600000000000000e+04
-9.321000000000000000e+04
-9.239100000000000000e+04
-8.773300000000000000e+04
-8.555200000000000000e+04
-8.906600000000000000e+04
-9.323700000000000000e+04
-9.240600000000000000e+04
-8.777300000000000000e+04
-8.561700000000000000e+04
-8.918700000000000000e+04
-9.357400000000000000e+04
-9.271600000000000000e+04
-8.778600000000000000e+04
-8.553200000000000000e+04
-8.899900000000000000e+04
-9.322200000000000000e+04
-9.248400000000000000e+04
-8.781400000000000000e+04
-8.551100000000000000e+04
-8.898400000000000000e+04
-9.322300000000000000e+04
-9.250700000000000000e+04
-8.782200000000000000e+04
-8.551900000000000000e+04
-8.903900000000000000e+04
-9.323200000000000000e+04
-9.253400000000000000e+04
-8.787900000000000000e+04
-8.550100000000000000e+04
-8.888200000000000000e+04
-9.320500000000000000e+04
-9.254400000000000000e+04
-8.788900000000000000e+04
-8.554700000000000000e+04
-8.891700000000000000e+04
-9.319700000000000000e+04
-9.252600000000000000e+04
-8.789500000000000000e+04
-8.555700000000000000e+04
-8.895700000000000000e+04
-9.321200000000000000e+04
-9.259100000000000000e+04
-8.793600000000000000e+04
-8.553600000000000000e+04
-8.899200000000000000e+04
-9.323700000000000000e+04
-9.261700000000000000e+04
-8.801400000000000000e+04
-8.555400000000000000e+04
-8.897400000000000000e+04
-9.321900000000000000e+04
-9.264400000000000000e+04
-8.803600000000000000e+04
-8.556200000000000000e+04
-8.891200000000000000e+04
-9.324900000000000000e+04
-9.275100000000000000e+04
-8.812600000000000000e+04
-8.556300000000000000e+04
-8.890800000000000000e+04
-9.320700000000000000e+04
-9.269500000000000000e+04
-8.808600000000000000e+04
-8.556200000000000000e+04
-8.886400000000000000e+04
-9.321700000000000000e+04
-9.279800000000000000e+04
-8.815100000000000000e+04
-8.555700000000000000e+04
-8.882000000000000000e+04
-9.318600000000000000e+04
-9.278800000000000000e+04
-8.817000000000000000e+04
-8.552100000000000000e+04
-8.883900000000000000e+04
-9.320600000000000000e+04
-9.271400000000000000e+04
-8.812100000000000000e+04
-8.551200000000000000e+04
-8.874600000000000000e+04
-9.315600000000000000e+04
-9.283200000000000000e+04
-8.819900000000000000e+04
-8.553200000000000000e+04
-8.880700000000000000e+04
-9.318500000000000000e+04
-9.278900000000000000e+04
-8.824400000000000000e+04
-8.554400000000000000e+04
-8.859900000000000000e+04
-9.312100000000000000e+04
-9.292100000000000000e+04
-8.829200000000000000e+04
-8.548400000000000000e+04
-8.864500000000000000e+04
-9.315200000000000000e+04
-9.292700000000000000e+04
-8.833900000000000000e+04
-8.557400000000000000e+04
-8.867700000000000000e+04
-9.315400000000000000e+04
-9.292700000000000000e+04
-8.832900000000000000e+04
-8.551600000000000000e+04
-8.863700000000000000e+04
-9.312100000000000000e+04
-9.306400000000000000e+04
-8.851700000000000000e+04
-8.555900000000000000e+04
-8.854900000000000000e+04
-9.312200000000000000e+04
-9.314900000000000000e+04
-8.843700000000000000e+04
-8.549100000000000000e+04
-8.853900000000000000e+04
-9.310600000000000000e+04
-9.313700000000000000e+04
-8.857000000000000000e+04
-8.555900000000000000e+04
-8.852700000000000000e+04
-9.311500000000000000e+04
-9.320000000000000000e+04
-8.863200000000000000e+04
-8.559700000000000000e+04
-8.860200000000000000e+04
-9.317600000000000000e+04
-9.317100000000000000e+04
-8.864000000000000000e+04
-8.558800000000000000e+04
-8.851700000000000000e+04
-9.315900000000000000e+04
-9.331600000000000000e+04
-8.868600000000000000e+04
-8.556100000000000000e+04
-8.848900000000000000e+04
-9.321400000000000000e+04
-9.383300000000000000e+04
-8.910500000000000000e+04
-8.567600000000000000e+04
-8.839200000000000000e+04
-9.308800000000000000e+04
-9.334500000000000000e+04
-8.881100000000000000e+04
-8.560200000000000000e+04
-8.846800000000000000e+04
-9.314200000000000000e+04
-9.340200000000000000e+04
-8.884800000000000000e+04
-8.562000000000000000e+04
-8.845600000000000000e+04
-9.313100000000000000e+04
-9.345400000000000000e+04
-8.891900000000000000e+04
-8.564400000000000000e+04
-8.841700000000000000e+04
-9.307900000000000000e+04
-9.345000000000000000e+04
-8.892600000000000000e+04
-8.567100000000000000e+04
-8.832000000000000000e+04
-9.298200000000000000e+04
-9.337600000000000000e+04
-8.887200000000000000e+04
-8.561300000000000000e+04
-8.838300000000000000e+04
-9.299500000000000000e+04
-9.334000000000000000e+04
-8.885600000000000000e+04
-8.565200000000000000e+04
-8.839300000000000000e+04
-9.294800000000000000e+04
-9.335200000000000000e+04
-8.895700000000000000e+04
-8.592900000000000000e+04
-8.845300000000000000e+04
-9.303700000000000000e+04
-9.333600000000000000e+04
-8.887000000000000000e+04
-8.560300000000000000e+04
-8.837900000000000000e+04
-9.302600000000000000e+04
-9.337100000000000000e+04
-8.894200000000000000e+04
-8.560800000000000000e+04
-8.835800000000000000e+04
-9.299900000000000000e+04
-9.338600000000000000e+04
-8.897300000000000000e+04
-8.571400000000000000e+04
-8.831700000000000000e+04
-9.297900000000000000e+04
-9.338200000000000000e+04
-8.895300000000000000e+04
-8.570900000000000000e+04
-8.875800000000000000e+04
-9.321300000000000000e+04
-9.380100000000000000e+04
-8.942600000000000000e+04
-8.607700000000000000e+04
-8.881200000000000000e+04
-9.355700000000000000e+04
-9.397600000000000000e+04
-8.897000000000000000e+04
-8.566800000000000000e+04
-8.835800000000000000e+04
-9.305900000000000000e+04
-9.346400000000000000e+04
-8.901700000000000000e+04
-8.572800000000000000e+04
-8.834900000000000000e+04
-9.297600000000000000e+04
-9.345600000000000000e+04
-8.907500000000000000e+04
-8.574600000000000000e+04
-8.840400000000000000e+04
-9.295200000000000000e+04
-9.344400000000000000e+04
-8.908300000000000000e+04
-8.573400000000000000e+04
-8.834900000000000000e+04
-9.300700000000000000e+04
-9.353300000000000000e+04
-8.909400000000000000e+04
-8.576800000000000000e+04
-8.829700000000000000e+04
-9.292300000000000000e+04
-9.347900000000000000e+04
-8.918200000000000000e+04
-8.572600000000000000e+04
-8.827000000000000000e+04
-9.292500000000000000e+04
-9.351500000000000000e+04
-8.920800000000000000e+04
-8.574900000000000000e+04
-8.830700000000000000e+04
-9.299200000000000000e+04
-9.358200000000000000e+04
-8.921300000000000000e+04
-8.575600000000000000e+04
-8.833900000000000000e+04
-9.294200000000000000e+04
-9.350900000000000000e+04
-8.922900000000000000e+04
-8.580200000000000000e+04
-8.826900000000000000e+04
-9.290600000000000000e+04
-9.359900000000000000e+04
-8.927800000000000000e+04
-8.578200000000000000e+04
-8.824400000000000000e+04
-9.296700000000000000e+04
-9.355900000000000000e+04
-8.925000000000000000e+04
-8.580900000000000000e+04
-8.825400000000000000e+04
-9.289200000000000000e+04
-9.359500000000000000e+04
-8.936200000000000000e+04
-8.591800000000000000e+04
-8.828100000000000000e+04
-9.284100000000000000e+04
-9.365100000000000000e+04
-8.937500000000000000e+04
-8.583300000000000000e+04
-8.860600000000000000e+04
-9.328300000000000000e+04
-9.366200000000000000e+04
-8.938300000000000000e+04
-8.584100000000000000e+04
-8.825800000000000000e+04
-9.289700000000000000e+04
-9.361800000000000000e+04
-8.940400000000000000e+04
-8.588500000000000000e+04
-8.821400000000000000e+04
-9.277900000000000000e+04
-9.362500000000000000e+04
-8.942200000000000000e+04
-8.587200000000000000e+04
-8.817200000000000000e+04
-9.280600000000000000e+04
-9.366400000000000000e+04
-8.945200000000000000e+04
-8.585200000000000000e+04
-8.807600000000000000e+04
-9.276500000000000000e+04
-9.366600000000000000e+04
-8.951400000000000000e+04
-8.593700000000000000e+04
-8.805100000000000000e+04
-9.268000000000000000e+04
-9.367000000000000000e+04
-8.952900000000000000e+04
-8.588700000000000000e+04
-8.803200000000000000e+04
-9.274300000000000000e+04
-9.374900000000000000e+04
-8.957700000000000000e+04
-8.584200000000000000e+04
-8.803400000000000000e+04
-9.279800000000000000e+04
-9.377000000000000000e+04
-8.959200000000000000e+04
-8.594100000000000000e+04
-8.801400000000000000e+04
-9.274200000000000000e+04
-9.380200000000000000e+04
-8.966400000000000000e+04
-8.593900000000000000e+04
-8.807500000000000000e+04
-9.278200000000000000e+04
-9.387000000000000000e+04
-8.972600000000000000e+04
-8.597200000000000000e+04
-8.813600000000000000e+04
-9.276700000000000000e+04
-9.383000000000000000e+04
-8.973900000000000000e+04
-8.596700000000000000e+04
-8.802200000000000000e+04
-9.274600000000000000e+04
-9.390700000000000000e+04
-8.981700000000000000e+04
-8.598300000000000000e+04
-8.802400000000000000e+04
-9.275400000000000000e+04
-9.391900000000000000e+04
-8.981400000000000000e+04
-8.603900000000000000e+04
-8.803700000000000000e+04
-9.268200000000000000e+04
-9.386100000000000000e+04
-8.982100000000000000e+04
-8.599700000000000000e+04
-8.798800000000000000e+04
-9.265700000000000000e+04
-9.390900000000000000e+04
-8.987900000000000000e+04
-8.601500000000000000e+04
-8.792600000000000000e+04
-9.264900000000000000e+04
-9.393700000000000000e+04
-8.995900000000000000e+04
-8.602100000000000000e+04
-8.788700000000000000e+04
-9.269400000000000000e+04
-9.396900000000000000e+04
-8.987200000000000000e+04
-8.600500000000000000e+04
-8.788600000000000000e+04
-9.261100000000000000e+04
-9.392700000000000000e+04
-9.001200000000000000e+04
-8.631800000000000000e+04
-8.792100000000000000e+04
-9.261700000000000000e+04
-9.398100000000000000e+04
-8.999700000000000000e+04
-8.607600000000000000e+04
-8.784700000000000000e+04
-9.254800000000000000e+04
-9.397100000000000000e+04
-8.997900000000000000e+04
-8.603900000000000000e+04
-8.784900000000000000e+04
-9.255000000000000000e+04
-9.401400000000000000e+04
-9.002200000000000000e+04
-8.606200000000000000e+04
-8.783000000000000000e+04
-9.251100000000000000e+04
-9.397600000000000000e+04
-9.005700000000000000e+04
-8.604900000000000000e+04
-8.783100000000000000e+04
-9.255900000000000000e+04
-9.395000000000000000e+04
-9.003400000000000000e+04
-8.605500000000000000e+04
-8.778200000000000000e+04
-9.252200000000000000e+04
-9.402600000000000000e+04
-9.014400000000000000e+04
-8.615200000000000000e+04
-8.780700000000000000e+04
-9.248500000000000000e+04
-9.405100000000000000e+04
-9.017100000000000000e+04
-8.614900000000000000e+04
-8.779700000000000000e+04
-9.251400000000000000e+04
-9.409400000000000000e+04
-9.044200000000000000e+04
-8.651400000000000000e+04
-8.784200000000000000e+04
-9.245100000000000000e+04
-9.402000000000000000e+04
-9.019400000000000000e+04
-8.616100000000000000e+04
-8.775200000000000000e+04
-9.242600000000000000e+04
-9.403300000000000000e+04
-9.022400000000000000e+04
-8.617100000000000000e+04
-8.777200000000000000e+04
-9.247100000000000000e+04
-9.412100000000000000e+04
-9.026000000000000000e+04
-8.619600000000000000e+04
-8.776600000000000000e+04
-9.245000000000000000e+04
-9.403900000000000000e+04
-9.027700000000000000e+04
-8.620600000000000000e+04
-8.773200000000000000e+04
-9.242700000000000000e+04
-9.411900000000000000e+04
-9.033000000000000000e+04
-8.624700000000000000e+04
-8.772200000000000000e+04
-9.242100000000000000e+04
-9.415000000000000000e+04
-9.033500000000000000e+04
-8.626200000000000000e+04
-8.767900000000000000e+04
-9.239600000000000000e+04
-9.414300000000000000e+04
-9.035400000000000000e+04
-8.623100000000000000e+04
-8.765900000000000000e+04
-9.238100000000000000e+04
-9.419700000000000000e+04
-9.046700000000000000e+04
-8.625300000000000000e+04
-8.768600000000000000e+04
-9.241600000000000000e+04
-9.418500000000000000e+04
-9.049700000000000000e+04
-8.623100000000000000e+04
-8.760700000000000000e+04
-9.232600000000000000e+04
-9.418400000000000000e+04
-9.055500000000000000e+04
-8.638100000000000000e+04
-8.765900000000000000e+04
-9.236400000000000000e+04
-9.435200000000000000e+04
-9.075400000000000000e+04
-8.639600000000000000e+04
-8.752600000000000000e+04
-9.234100000000000000e+04
-9.434400000000000000e+04
-9.069300000000000000e+04
-8.638100000000000000e+04
-8.777400000000000000e+04
-9.254400000000000000e+04
-9.469600000000000000e+04
-9.115900000000000000e+04
-8.669700000000000000e+04
-8.798500000000000000e+04
-9.267900000000000000e+04
-9.451400000000000000e+04
-9.073200000000000000e+04
-8.663400000000000000e+04
-8.789400000000000000e+04
-9.257200000000000000e+04
-9.505600000000000000e+04
-9.174300000000000000e+04
-8.707700000000000000e+04
-8.775200000000000000e+04
-9.221900000000000000e+04
-9.468600000000000000e+04
-9.201700000000000000e+04
-8.776700000000000000e+04
-8.905600000000000000e+04
-9.341200000000000000e+04
-9.490500000000000000e+04
-9.153700000000000000e+04
-8.865800000000000000e+04
-9.092300000000000000e+04
-9.411100000000000000e+04
-9.413200000000000000e+04
-9.147800000000000000e+04
-8.752900000000000000e+04
-8.922500000000000000e+04
-9.532600000000000000e+04
-9.695800000000000000e+04
-9.164600000000000000e+04
-8.820900000000000000e+04
-9.049700000000000000e+04
-9.442900000000000000e+04
-9.697800000000000000e+04
-9.282600000000000000e+04
-8.829900000000000000e+04
-8.913200000000000000e+04
-9.342100000000000000e+04
-9.604300000000000000e+04
-9.235700000000000000e+04
-8.862700000000000000e+04
-8.953300000000000000e+04
-9.322100000000000000e+04
-9.480900000000000000e+04
-9.287600000000000000e+04
-8.963100000000000000e+04
-8.926900000000000000e+04
-9.331200000000000000e+04
-9.674200000000000000e+04
-9.289400000000000000e+04
-8.766900000000000000e+04
-8.843800000000000000e+04
-9.412200000000000000e+04
-9.633700000000000000e+04
-9.262700000000000000e+04
-8.830900000000000000e+04
-8.972900000000000000e+04
-9.434900000000000000e+04
-9.601500000000000000e+04
-9.243400000000000000e+04
-8.803100000000000000e+04
-8.909500000000000000e+04
-9.516700000000000000e+04
-9.799000000000000000e+04
-9.312400000000000000e+04
-8.752300000000000000e+04
-8.811400000000000000e+04
-9.368200000000000000e+04
-9.626700000000000000e+04
-9.248300000000000000e+04
-8.807700000000000000e+04
-8.950400000000000000e+04
-9.442200000000000000e+04
-9.629400000000000000e+04
-9.335200000000000000e+04
-8.887200000000000000e+04
-8.858600000000000000e+04
-9.296500000000000000e+04
-9.555000000000000000e+04
-9.328600000000000000e+04
-8.850900000000000000e+04
-8.863700000000000000e+04
-9.303300000000000000e+04
-9.566000000000000000e+04
-9.339900000000000000e+04
-8.905300000000000000e+04
-8.834700000000000000e+04
-9.285900000000000000e+04
-9.611700000000000000e+04
-9.239400000000000000e+04
-8.780700000000000000e+04
-8.838700000000000000e+04
-9.304700000000000000e+04
-9.633200000000000000e+04
-9.319700000000000000e+04
-8.762100000000000000e+04
-8.800900000000000000e+04
-9.342400000000000000e+04
-9.579700000000000000e+04
-9.197400000000000000e+04
-8.731700000000000000e+04
-8.792100000000000000e+04
-9.299900000000000000e+04
-9.543700000000000000e+04
-9.202600000000000000e+04
-8.755900000000000000e+04
-8.805600000000000000e+04
-9.333400000000000000e+04
-9.554500000000000000e+04
-9.173600000000000000e+04
-8.730500000000000000e+04
-8.805700000000000000e+04
-9.274700000000000000e+04
-9.518400000000000000e+04
-9.218100000000000000e+04
-8.717400000000000000e+04
-8.774900000000000000e+04
-9.263300000000000000e+04
-9.539500000000000000e+04
-9.197100000000000000e+04
-8.713800000000000000e+04
-8.743200000000000000e+04
-9.213800000000000000e+04
-9.498900000000000000e+04
-9.183100000000000000e+04
-8.725800000000000000e+04
-8.772100000000000000e+04
-9.219000000000000000e+04
-9.494000000000000000e+04
-9.199700000000000000e+04
-8.747600000000000000e+04
-8.757600000000000000e+04
-9.194900000000000000e+04
-9.493600000000000000e+04
-9.210300000000000000e+04
-8.738900000000000000e+04
-8.731200000000000000e+04
-9.176400000000000000e+04
-9.465200000000000000e+04
-9.166200000000000000e+04
-8.708800000000000000e+04
-8.729500000000000000e+04
-9.177400000000000000e+04
-9.464900000000000000e+04
-9.169600000000000000e+04
-8.686600000000000000e+04
-8.699400000000000000e+04
-9.154400000000000000e+04
-9.445600000000000000e+04
-9.161600000000000000e+04
-8.699700000000000000e+04
-8.710000000000000000e+04
-9.159900000000000000e+04
-9.457100000000000000e+04
-9.131300000000000000e+04
-8.641200000000000000e+04
-8.668500000000000000e+04
-9.122900000000000000e+04
-9.415400000000000000e+04
-9.126800000000000000e+04
-8.655700000000000000e+04
-8.671500000000000000e+04
-9.095800000000000000e+04
-9.408800000000000000e+04
-9.124400000000000000e+04
-8.640200000000000000e+04
-8.647600000000000000e+04
-9.126900000000000000e+04
-9.409600000000000000e+04
-9.106200000000000000e+04
-8.632100000000000000e+04
-8.628400000000000000e+04
-9.069900000000000000e+04
-9.378100000000000000e+04
-9.087100000000000000e+04
-8.639800000000000000e+04
-8.639500000000000000e+04
-9.093300000000000000e+04
-9.387100000000000000e+04
-9.086500000000000000e+04
-8.619200000000000000e+04
-8.600900000000000000e+04
-9.067400000000000000e+04
-9.387600000000000000e+04
-9.097700000000000000e+04
-8.628400000000000000e+04
-8.624400000000000000e+04
-9.074200000000000000e+04
-9.384100000000000000e+04
-9.093800000000000000e+04
-8.611700000000000000e+04
-8.652300000000000000e+04
-9.120900000000000000e+04
-9.373200000000000000e+04
-9.106400000000000000e+04
-8.626300000000000000e+04
-8.600000000000000000e+04
-9.047700000000000000e+04
-9.358100000000000000e+04
-9.099700000000000000e+04
-8.639100000000000000e+04
-8.598200000000000000e+04
-9.036400000000000000e+04
-9.347700000000000000e+04
-9.085100000000000000e+04
-8.622400000000000000e+04
-8.608600000000000000e+04
-9.051000000000000000e+04
-9.351900000000000000e+04
-9.084100000000000000e+04
-8.606800000000000000e+04
-8.602400000000000000e+04
-9.050700000000000000e+04
-9.367400000000000000e+04
-9.095400000000000000e+04
-8.604700000000000000e+04
-8.593300000000000000e+04
-9.048400000000000000e+04
-9.349900000000000000e+04
-9.081600000000000000e+04
-8.636300000000000000e+04
-8.591500000000000000e+04
-9.021900000000000000e+04
-9.338400000000000000e+04
-9.074800000000000000e+04
-8.613300000000000000e+04
-8.588600000000000000e+04
-9.034700000000000000e+04
-9.340400000000000000e+04
-9.078700000000000000e+04
-8.610600000000000000e+04
-8.591400000000000000e+04
-9.031800000000000000e+04
-9.342900000000000000e+04
-9.083700000000000000e+04
-8.612700000000000000e+04
-8.593600000000000000e+04
-9.019900000000000000e+04
-9.335100000000000000e+04
-9.069200000000000000e+04
-8.599400000000000000e+04
-8.575700000000000000e+04
-9.017600000000000000e+04
-9.333600000000000000e+04
-9.080100000000000000e+04
-8.614000000000000000e+04
-8.586500000000000000e+04
-9.021600000000000000e+04
-9.328200000000000000e+04
-9.070200000000000000e+04
-8.607600000000000000e+04
-8.567900000000000000e+04
-9.006400000000000000e+04
-9.326900000000000000e+04
-9.085400000000000000e+04
-8.611100000000000000e+04
-8.570700000000000000e+04
-9.010700000000000000e+04
-9.333600000000000000e+04
-9.081800000000000000e+04
-8.610400000000000000e+04
-8.572200000000000000e+04
-9.012900000000000000e+04
-9.331600000000000000e+04
-9.080000000000000000e+04
-8.612800000000000000e+04
-8.568300000000000000e+04
-9.006200000000000000e+04
-9.325700000000000000e+04
-9.081300000000000000e+04
-8.609900000000000000e+04
-8.567900000000000000e+04
-9.005000000000000000e+04
-9.337000000000000000e+04
-9.089100000000000000e+04
-8.613600000000000000e+04
-8.575400000000000000e+04
-9.001100000000000000e+04
-9.320500000000000000e+04
-9.087600000000000000e+04
-8.618500000000000000e+04
-8.564600000000000000e+04
-8.994300000000000000e+04
-9.327100000000000000e+04
-9.094000000000000000e+04
-8.618800000000000000e+04
-8.571100000000000000e+04
-9.005200000000000000e+04
-9.320600000000000000e+04
-9.087200000000000000e+04
-8.616000000000000000e+04
-8.555000000000000000e+04
-8.989900000000000000e+04
-9.327800000000000000e+04
-9.095400000000000000e+04
-8.623000000000000000e+04
-8.561500000000000000e+04
-8.989300000000000000e+04
-9.322400000000000000e+04
-9.098000000000000000e+04
-8.631700000000000000e+04
-8.564000000000000000e+04
-8.980000000000000000e+04
-9.323600000000000000e+04
-9.102000000000000000e+04
-8.630100000000000000e+04
-8.559700000000000000e+04
-8.986100000000000000e+04
-9.326700000000000000e+04
-9.096700000000000000e+04
-8.622000000000000000e+04
-8.555300000000000000e+04
-8.985300000000000000e+04
-9.326000000000000000e+04
-9.105700000000000000e+04
-8.631900000000000000e+04
-8.559200000000000000e+04
-8.989300000000000000e+04
-9.372300000000000000e+04
-9.139700000000000000e+04
-8.636600000000000000e+04
-8.552800000000000000e+04
-8.983400000000000000e+04
-9.323200000000000000e+04
-9.104100000000000000e+04
-8.637700000000000000e+04
-8.559700000000000000e+04
-8.974200000000000000e+04
-9.328100000000000000e+04
-9.110100000000000000e+04
-8.639400000000000000e+04
-8.554200000000000000e+04
-8.972200000000000000e+04
-9.323800000000000000e+04
-9.113900000000000000e+04
-8.640100000000000000e+04
-8.551800000000000000e+04
-8.978400000000000000e+04
-9.332200000000000000e+04
-9.109600000000000000e+04
-8.638000000000000000e+04
-8.552300000000000000e+04
-8.965300000000000000e+04
-9.324000000000000000e+04
-9.124200000000000000e+04
-8.649700000000000000e+04
-8.549700000000000000e+04
-8.969600000000000000e+04
-9.321200000000000000e+04
-9.117400000000000000e+04
-8.642700000000000000e+04
-8.549100000000000000e+04
-8.967800000000000000e+04
-9.323100000000000000e+04
-9.132600000000000000e+04
-8.653800000000000000e+04
-8.548400000000000000e+04
-8.959900000000000000e+04
-9.323700000000000000e+04
-9.136400000000000000e+04
-8.660600000000000000e+04
-8.542900000000000000e+04
-8.957300000000000000e+04
-9.323200000000000000e+04
-9.131600000000000000e+04
-8.659100000000000000e+04
-8.546400000000000000e+04
-8.956200000000000000e+04
-9.324200000000000000e+04
-9.135900000000000000e+04
-8.661500000000000000e+04
-8.553100000000000000e+04
-8.954800000000000000e+04
-9.319300000000000000e+04
-9.137100000000000000e+04
-8.662100000000000000e+04
-8.547700000000000000e+04
-8.960900000000000000e+04
-9.330800000000000000e+04
-9.136100000000000000e+04
-8.665500000000000000e+04
-8.542400000000000000e+04
-8.945600000000000000e+04
-9.325500000000000000e+04
-9.140900000000000000e+04
-8.661300000000000000e+04
-8.542700000000000000e+04
-8.950700000000000000e+04
-9.327200000000000000e+04
-9.145100000000000000e+04
-8.673100000000000000e+04
-8.543400000000000000e+04
-8.936700000000000000e+04
-9.316400000000000000e+04
-9.144600000000000000e+04
-8.672400000000000000e+04
-8.545000000000000000e+04
-8.943800000000000000e+04
-9.318200000000000000e+04
-9.152600000000000000e+04
-8.671200000000000000e+04
-8.536800000000000000e+04
-8.941100000000000000e+04
-9.326000000000000000e+04
-9.150800000000000000e+04
-8.676800000000000000e+04
-8.541900000000000000e+04
-8.933200000000000000e+04
-9.316700000000000000e+04
-9.150600000000000000e+04
-8.678300000000000000e+04
-8.545400000000000000e+04
-8.945800000000000000e+04
-9.312900000000000000e+04
-9.151700000000000000e+04
-8.681700000000000000e+04
-8.535400000000000000e+04
-8.938600000000000000e+04
-9.316700000000000000e+04
-9.160200000000000000e+04
-8.686900000000000000e+04
-8.542100000000000000e+04
-8.941000000000000000e+04
-9.316600000000000000e+04
-9.155900000000000000e+04
-8.687800000000000000e+04
-8.543000000000000000e+04
-8.933200000000000000e+04
-9.318200000000000000e+04
-9.171600000000000000e+04
-8.688500000000000000e+04
-8.536900000000000000e+04
-8.929600000000000000e+04
-9.312600000000000000e+04
-9.175700000000000000e+04
-8.692700000000000000e+04
-8.533400000000000000e+04
-8.923200000000000000e+04
-9.319100000000000000e+04
-9.181000000000000000e+04
-8.699600000000000000e+04
-8.544900000000000000e+04
-8.926500000000000000e+04
-9.311800000000000000e+04
-9.179200000000000000e+04
-8.704600000000000000e+04
-8.566200000000000000e+04
-8.935900000000000000e+04
-9.315600000000000000e+04
-9.192100000000000000e+04
-8.713500000000000000e+04
-8.532400000000000000e+04
-8.921200000000000000e+04
-9.318100000000000000e+04
-9.187400000000000000e+04
-8.704800000000000000e+04
-8.529200000000000000e+04
-8.917200000000000000e+04
-9.317800000000000000e+04
-9.187100000000000000e+04
-8.709700000000000000e+04
-8.539400000000000000e+04
-8.914200000000000000e+04
-9.309600000000000000e+04
-9.191000000000000000e+04
-8.712600000000000000e+04
-8.537400000000000000e+04
-8.907000000000000000e+04
-9.310600000000000000e+04
-9.197000000000000000e+04
-8.711900000000000000e+04
-8.533900000000000000e+04
-8.909700000000000000e+04
-9.311100000000000000e+04
-9.195400000000000000e+04
-8.717000000000000000e+04
-8.532700000000000000e+04
-8.913400000000000000e+04
-9.316800000000000000e+04
-9.198700000000000000e+04
-8.722300000000000000e+04
-8.537700000000000000e+04
-8.906300000000000000e+04
-9.308800000000000000e+04
-9.192100000000000000e+04
-8.721200000000000000e+04
-8.528700000000000000e+04
-8.905000000000000000e+04
-9.313300000000000000e+04
-9.201700000000000000e+04
-8.726900000000000000e+04
-8.526600000000000000e+04
-8.902400000000000000e+04
-9.313900000000000000e+04
-9.202300000000000000e+04
-8.731900000000000000e+04
-8.537200000000000000e+04
-8.908400000000000000e+04
-9.306400000000000000e+04
-9.199300000000000000e+04
-8.733500000000000000e+04
-8.533600000000000000e+04
-8.898300000000000000e+04
-9.309800000000000000e+04
-9.211100000000000000e+04
-8.744800000000000000e+04
-8.526400000000000000e+04
-8.888700000000000000e+04
-9.307300000000000000e+04
-9.216200000000000000e+04
-8.741100000000000000e+04
-8.531700000000000000e+04
-8.890700000000000000e+04
-9.303700000000000000e+04
-9.210900000000000000e+04
-8.737000000000000000e+04
-8.529700000000000000e+04
-8.891900000000000000e+04
-9.308800000000000000e+04
-9.216800000000000000e+04
-8.747800000000000000e+04
-8.535400000000000000e+04
-8.891900000000000000e+04
-9.304100000000000000e+04
-9.218300000000000000e+04
-8.756900000000000000e+04
-8.536200000000000000e+04
-8.887100000000000000e+04
-9.308100000000000000e+04
-9.221000000000000000e+04
-8.746000000000000000e+04
-8.527300000000000000e+04
-8.886900000000000000e+04
-9.313200000000000000e+04
-9.217800000000000000e+04
-8.750400000000000000e+04
-8.526400000000000000e+04
-8.878600000000000000e+04
-9.309300000000000000e+04
-9.229400000000000000e+04
-8.750400000000000000e+04
-8.528900000000000000e+04
-8.882500000000000000e+04
-9.306800000000000000e+04
-9.233400000000000000e+04
-8.759200000000000000e+04
-8.524900000000000000e+04
-8.877100000000000000e+04
-9.303900000000000000e+04
-9.236600000000000000e+04
-8.770100000000000000e+04
-8.528100000000000000e+04
-8.878700000000000000e+04
-9.301100000000000000e+04
-9.232200000000000000e+04
-8.764400000000000000e+04
-8.536400000000000000e+04
-8.883500000000000000e+04
-9.302100000000000000e+04
-9.235600000000000000e+04
-8.767200000000000000e+04
-8.533600000000000000e+04
-8.876100000000000000e+04
-9.299000000000000000e+04
-9.236900000000000000e+04
-8.766700000000000000e+04
-8.523200000000000000e+04
-8.864600000000000000e+04
-9.298500000000000000e+04
-9.242800000000000000e+04
-8.775900000000000000e+04
-8.531900000000000000e+04
-8.871300000000000000e+04
-9.298200000000000000e+04
-9.289400000000000000e+04
-8.804000000000000000e+04
-8.540600000000000000e+04
-8.882000000000000000e+04
-9.304500000000000000e+04
-9.252700000000000000e+04
-8.779800000000000000e+04
-8.531900000000000000e+04
-8.868300000000000000e+04
-9.293100000000000000e+04
-9.253600000000000000e+04
-8.788100000000000000e+04
-8.529400000000000000e+04
-8.867900000000000000e+04
-9.305200000000000000e+04
-9.241100000000000000e+04
-8.784300000000000000e+04
-8.532600000000000000e+04
-8.861000000000000000e+04
-9.294300000000000000e+04
-9.257600000000000000e+04
-8.784600000000000000e+04
-8.529700000000000000e+04
-8.867700000000000000e+04
-9.290700000000000000e+04
-9.251200000000000000e+04
-8.790200000000000000e+04
-8.531300000000000000e+04
-8.854200000000000000e+04
-9.292700000000000000e+04
-9.261700000000000000e+04
-8.800400000000000000e+04
-8.533700000000000000e+04
-8.855100000000000000e+04
-9.293200000000000000e+04
-9.259700000000000000e+04
-8.800900000000000000e+04
-8.540400000000000000e+04
-8.860000000000000000e+04
-9.299800000000000000e+04
-9.253700000000000000e+04
-8.801200000000000000e+04
-8.539800000000000000e+04
-8.855000000000000000e+04
-9.281900000000000000e+04
-9.262600000000000000e+04
-8.802600000000000000e+04
-8.528900000000000000e+04
-8.848400000000000000e+04
-9.293200000000000000e+04
-9.274400000000000000e+04
-8.815300000000000000e+04
-8.531800000000000000e+04
-8.844200000000000000e+04
-9.287800000000000000e+04
-9.271600000000000000e+04
-8.812500000000000000e+04
-8.535000000000000000e+04
-8.849800000000000000e+04
-9.283000000000000000e+04
-9.277100000000000000e+04
-8.820900000000000000e+04
-8.528300000000000000e+04
-8.842700000000000000e+04
-9.286300000000000000e+04
-9.277800000000000000e+04
-8.822800000000000000e+04
-8.529100000000000000e+04
-8.842600000000000000e+04
-9.293400000000000000e+04
-9.285100000000000000e+04
-8.828900000000000000e+04
-8.534700000000000000e+04
-8.832400000000000000e+04
-9.281900000000000000e+04
-9.275000000000000000e+04
-8.828300000000000000e+04
-8.536500000000000000e+04
-8.832700000000000000e+04
-9.281700000000000000e+04
-9.285900000000000000e+04
-8.842400000000000000e+04
-8.540400000000000000e+04
-8.831100000000000000e+04
-9.278400000000000000e+04
-9.283000000000000000e+04
-8.829400000000000000e+04
-8.537400000000000000e+04
-8.829900000000000000e+04
-9.280300000000000000e+04
-9.286400000000000000e+04
-8.842600000000000000e+04
-8.541900000000000000e+04
-8.829700000000000000e+04
-9.279900000000000000e+04
-9.288800000000000000e+04
-8.835200000000000000e+04
-8.538800000000000000e+04
-8.827700000000000000e+04
-9.294600000000000000e+04
-9.292700000000000000e+04
-8.828600000000000000e+04
-8.531600000000000000e+04
-8.821700000000000000e+04
-9.273600000000000000e+04
-9.292900000000000000e+04
-8.845200000000000000e+04
-8.540800000000000000e+04
-8.828600000000000000e+04
-9.279100000000000000e+04
-9.293600000000000000e+04
-8.851200000000000000e+04
-8.543400000000000000e+04
-8.826900000000000000e+04
-9.273200000000000000e+04
-9.294500000000000000e+04
-8.856100000000000000e+04
-8.540900000000000000e+04
-8.822500000000000000e+04
-9.281900000000000000e+04
-9.297600000000000000e+04
-8.860600000000000000e+04
-8.543900000000000000e+04
-8.826700000000000000e+04
-9.266600000000000000e+04
-9.294500000000000000e+04
-8.861500000000000000e+04
-8.553700000000000000e+04
-8.867200000000000000e+04
-9.284800000000000000e+04
-9.307900000000000000e+04
-8.865100000000000000e+04
-8.546300000000000000e+04
-8.828200000000000000e+04
-9.275200000000000000e+04
-9.312700000000000000e+04
-8.866100000000000000e+04
-8.544700000000000000e+04
-8.808200000000000000e+04
-9.269400000000000000e+04
-9.312900000000000000e+04
-8.870400000000000000e+04
-8.542700000000000000e+04
-8.812100000000000000e+04
-9.272600000000000000e+04
-9.315100000000000000e+04
-8.878600000000000000e+04
-8.549900000000000000e+04
-8.817200000000000000e+04
-9.267900000000000000e+04
-9.309500000000000000e+04
-8.877600000000000000e+04
-8.549800000000000000e+04
-8.809600000000000000e+04
-9.274700000000000000e+04
-9.310400000000000000e+04
-8.876200000000000000e+04
-8.545900000000000000e+04
-8.809100000000000000e+04
-9.265900000000000000e+04
-9.322300000000000000e+04
-8.884000000000000000e+04
-8.547600000000000000e+04
-8.798600000000000000e+04
-9.259900000000000000e+04
-9.314400000000000000e+04
-8.885100000000000000e+04
-8.546500000000000000e+04
-8.803600000000000000e+04
-9.261600000000000000e+04
-9.320700000000000000e+04
-8.890700000000000000e+04
-8.548100000000000000e+04
-8.788200000000000000e+04
-9.257500000000000000e+04
-9.321700000000000000e+04
-8.888600000000000000e+04
-8.549200000000000000e+04
-8.802200000000000000e+04
-9.270600000000000000e+04
-9.329600000000000000e+04
-8.894400000000000000e+04
-8.549300000000000000e+04
-8.793700000000000000e+04
-9.263600000000000000e+04
-9.332200000000000000e+04
-8.903200000000000000e+04
-8.558600000000000000e+04
-8.804000000000000000e+04
-9.261200000000000000e+04
-9.328200000000000000e+04
-8.904200000000000000e+04
-8.548600000000000000e+04
-8.789700000000000000e+04
-9.259200000000000000e+04
-9.341700000000000000e+04
-8.913900000000000000e+04
-8.558100000000000000e+04
-8.795200000000000000e+04
-9.255200000000000000e+04
-9.330100000000000000e+04
-8.903400000000000000e+04
-8.548800000000000000e+04
-8.781900000000000000e+04
-9.251400000000000000e+04
-9.335200000000000000e+04
-8.909100000000000000e+04
-8.551200000000000000e+04
-8.783700000000000000e+04
-9.255800000000000000e+04
-9.337700000000000000e+04
-8.912600000000000000e+04
-8.551400000000000000e+04
-8.778100000000000000e+04
-9.245400000000000000e+04
-9.332200000000000000e+04
-8.913400000000000000e+04
-8.552500000000000000e+04
-8.779300000000000000e+04
-9.245900000000000000e+04
-9.342000000000000000e+04
-8.925100000000000000e+04
-8.564600000000000000e+04
-8.778900000000000000e+04
-9.247600000000000000e+04
-9.336500000000000000e+04
-8.922900000000000000e+04
-8.561400000000000000e+04
-8.778000000000000000e+04
-9.243300000000000000e+04
-9.358600000000000000e+04
-8.943800000000000000e+04
-8.554700000000000000e+04
-8.770400000000000000e+04
-9.248100000000000000e+04
-9.357800000000000000e+04
-8.933500000000000000e+04
-8.560100000000000000e+04
-8.775800000000000000e+04
-9.250900000000000000e+04
-9.355400000000000000e+04
-8.938400000000000000e+04
-8.571300000000000000e+04
-8.779700000000000000e+04
-9.241100000000000000e+04
-9.357100000000000000e+04
-8.947200000000000000e+04
-8.576200000000000000e+04
-8.766900000000000000e+04
-9.243000000000000000e+04
-9.358600000000000000e+04
-8.945900000000000000e+04
-8.565400000000000000e+04
-8.773600000000000000e+04
-9.237900000000000000e+04
-9.353800000000000000e+04
-8.946100000000000000e+04
-8.568400000000000000e+04
-8.770800000000000000e+04
-9.254200000000000000e+04
-9.411100000000000000e+04
-8.957500000000000000e+04
-8.576600000000000000e+04
-8.768800000000000000e+04
-9.235100000000000000e+04
-9.356300000000000000e+04
-8.949900000000000000e+04
-8.569200000000000000e+04
-8.766300000000000000e+04
-9.239900000000000000e+04
-9.361000000000000000e+04
-8.958400000000000000e+04
-8.575600000000000000e+04
-8.770200000000000000e+04
-9.240200000000000000e+04
-9.361900000000000000e+04
-8.960900000000000000e+04
-8.574100000000000000e+04
-8.761700000000000000e+04
-9.233500000000000000e+04
-9.365300000000000000e+04
-8.964900000000000000e+04
-8.576900000000000000e+04
-8.766700000000000000e+04
-9.236000000000000000e+04
-9.371900000000000000e+04
-8.981400000000000000e+04
-8.572700000000000000e+04
-8.758500000000000000e+04
-9.237000000000000000e+04
-9.366300000000000000e+04
-8.967200000000000000e+04
-8.580000000000000000e+04
-8.760900000000000000e+04
-9.230100000000000000e+04
-9.371300000000000000e+04
-8.976200000000000000e+04
-8.584400000000000000e+04
-8.761700000000000000e+04
-9.226800000000000000e+04
-9.368100000000000000e+04
-8.976600000000000000e+04
-8.583900000000000000e+04
-8.761200000000000000e+04
-9.231500000000000000e+04
-9.372900000000000000e+04
-8.977600000000000000e+04
-8.585700000000000000e+04
-8.758000000000000000e+04
-9.235900000000000000e+04
-9.373100000000000000e+04
-8.984000000000000000e+04
-8.587400000000000000e+04
-8.758400000000000000e+04
-9.228500000000000000e+04
-9.375900000000000000e+04
-8.986200000000000000e+04
-8.583700000000000000e+04
-8.755300000000000000e+04
-9.224700000000000000e+04
-9.380000000000000000e+04
-8.989700000000000000e+04
-8.591100000000000000e+04
-8.756800000000000000e+04
-9.231100000000000000e+04
-9.387600000000000000e+04
-8.996400000000000000e+04
-8.586900000000000000e+04
-8.743900000000000000e+04
-9.218400000000000000e+04
-9.376800000000000000e+04
-8.995400000000000000e+04
-8.591100000000000000e+04
-8.746200000000000000e+04
-9.225400000000000000e+04
-9.387900000000000000e+04
-8.986700000000000000e+04
-8.587300000000000000e+04
-8.743800000000000000e+04
-9.219700000000000000e+04
-9.381700000000000000e+04
-8.998900000000000000e+04
-8.592500000000000000e+04
-8.748900000000000000e+04
-9.223100000000000000e+04
-9.378200000000000000e+04
-9.003100000000000000e+04
-8.599200000000000000e+04
-8.746100000000000000e+04
-9.211200000000000000e+04
-9.382400000000000000e+04
-9.009700000000000000e+04
-8.597300000000000000e+04
-8.743600000000000000e+04
-9.213700000000000000e+04
-9.388000000000000000e+04
-9.010900000000000000e+04
-8.596600000000000000e+04
-8.740800000000000000e+04
-9.217800000000000000e+04
-9.402200000000000000e+04
-9.011800000000000000e+04
-8.590700000000000000e+04
-8.731200000000000000e+04
-9.209400000000000000e+04
-9.391100000000000000e+04
-9.022400000000000000e+04
-8.608600000000000000e+04
-8.739000000000000000e+04
-9.199100000000000000e+04
-9.391900000000000000e+04
-9.024300000000000000e+04
-8.602500000000000000e+04
-8.735800000000000000e+04
-9.208400000000000000e+04
-9.397100000000000000e+04
-9.030600000000000000e+04
-8.609700000000000000e+04
-8.740600000000000000e+04
-9.201000000000000000e+04
-9.401600000000000000e+04
-9.035800000000000000e+04
-8.603400000000000000e+04
-8.732200000000000000e+04
-9.223200000000000000e+04
-9.460900000000000000e+04
-9.050800000000000000e+04
-8.621200000000000000e+04
-8.727900000000000000e+04
-9.197500000000000000e+04
-9.397400000000000000e+04
-9.046000000000000000e+04
-8.621600000000000000e+04
-8.726900000000000000e+04
-9.197900000000000000e+04
-9.400100000000000000e+04
-9.044700000000000000e+04
-8.616100000000000000e+04
-8.730600000000000000e+04
-9.201700000000000000e+04
-9.404600000000000000e+04
-9.053200000000000000e+04
-8.621900000000000000e+04
-8.728900000000000000e+04
-9.197600000000000000e+04
-9.404900000000000000e+04
-9.048700000000000000e+04
-8.623500000000000000e+04
-8.741900000000000000e+04
-9.207600000000000000e+04
-9.402000000000000000e+04
-9.056800000000000000e+04
-8.622700000000000000e+04
-8.727200000000000000e+04
-9.192700000000000000e+04
-9.408600000000000000e+04
-9.056400000000000000e+04
-8.628500000000000000e+04
-8.727200000000000000e+04
-9.200100000000000000e+04
-9.407900000000000000e+04
-9.057600000000000000e+04
-8.626700000000000000e+04
-8.728600000000000000e+04
-9.196900000000000000e+04
-9.417000000000000000e+04
-9.053900000000000000e+04
-8.619700000000000000e+04
-8.726600000000000000e+04
-9.192400000000000000e+04
-9.411700000000000000e+04
-9.060900000000000000e+04
-8.630600000000000000e+04
-8.730000000000000000e+04
-9.196400000000000000e+04
-9.411100000000000000e+04
-9.072900000000000000e+04
-8.638200000000000000e+04
-8.718900000000000000e+04
-9.185800000000000000e+04
-9.417100000000000000e+04
-9.065100000000000000e+04
-8.630900000000000000e+04
-8.719900000000000000e+04
-9.187600000000000000e+04
-9.419600000000000000e+04
-9.070900000000000000e+04
-8.635400000000000000e+04
-8.718900000000000000e+04
-9.184200000000000000e+04
-9.417400000000000000e+04
-9.083200000000000000e+04
-8.646600000000000000e+04
-8.722200000000000000e+04
-9.178800000000000000e+04
-9.415600000000000000e+04
-9.078400000000000000e+04
-8.638600000000000000e+04
-8.719300000000000000e+04
-9.186500000000000000e+04
-9.423600000000000000e+04
-9.090700000000000000e+04
-8.651600000000000000e+04
-8.711700000000000000e+04
-9.177300000000000000e+04
-9.420300000000000000e+04
-9.093300000000000000e+04
-8.649400000000000000e+04
-8.717300000000000000e+04
-9.176900000000000000e+04
-9.417400000000000000e+04
-9.095200000000000000e+04
-8.654400000000000000e+04
-8.723600000000000000e+04
-9.183500000000000000e+04
-9.418200000000000000e+04
-9.095800000000000000e+04
-8.653900000000000000e+04
-8.712400000000000000e+04
-9.183000000000000000e+04
-9.424600000000000000e+04
-9.102300000000000000e+04
-8.655100000000000000e+04
-8.713600000000000000e+04
-9.171300000000000000e+04
-9.422600000000000000e+04
-9.103100000000000000e+04
-8.657700000000000000e+04
-8.721400000000000000e+04
-9.180700000000000000e+04
-9.430800000000000000e+04
-9.109300000000000000e+04
-8.656600000000000000e+04
-8.714500000000000000e+04
-9.176700000000000000e+04
-9.436200000000000000e+04
-9.119900000000000000e+04
-8.661200000000000000e+04
-8.709700000000000000e+04
-9.166600000000000000e+04
-9.423500000000000000e+04
-9.114500000000000000e+04
-8.668600000000000000e+04
-8.713100000000000000e+04
-9.173900000000000000e+04
-9.436900000000000000e+04
-9.122100000000000000e+04
-8.662900000000000000e+04
-8.711200000000000000e+04
-9.174500000000000000e+04
-9.433600000000000000e+04
-9.131600000000000000e+04
-8.713200000000000000e+04
-8.733400000000000000e+04
-9.169900000000000000e+04
-9.431500000000000000e+04
-9.132000000000000000e+04
-8.674900000000000000e+04
-8.702100000000000000e+04
-9.158400000000000000e+04
-9.432400000000000000e+04
-9.128600000000000000e+04
-8.667500000000000000e+04
-8.704900000000000000e+04
-9.166100000000000000e+04
-9.432800000000000000e+04
-9.130500000000000000e+04
-8.676300000000000000e+04
-8.704200000000000000e+04
-9.163300000000000000e+04
-9.430100000000000000e+04
-9.132400000000000000e+04
-8.677100000000000000e+04
-8.701900000000000000e+04
-9.157100000000000000e+04
-9.431100000000000000e+04
-9.135600000000000000e+04
-8.683200000000000000e+04
-8.703200000000000000e+04
-9.154300000000000000e+04
-9.431200000000000000e+04
-9.140400000000000000e+04
-8.685100000000000000e+04
-8.706400000000000000e+04
-9.151400000000000000e+04
-9.434400000000000000e+04
-9.145800000000000000e+04
-8.688900000000000000e+04
-8.711900000000000000e+04
-9.154900000000000000e+04
-9.433200000000000000e+04
-9.150700000000000000e+04
-8.688100000000000000e+04
-8.704100000000000000e+04
-9.161100000000000000e+04
-9.442100000000000000e+04
-9.152500000000000000e+04
-8.697700000000000000e+04
-8.712400000000000000e+04
-9.147500000000000000e+04
-9.431700000000000000e+04
-9.155700000000000000e+04
-8.698600000000000000e+04
-8.710600000000000000e+04
-9.152900000000000000e+04
-9.433700000000000000e+04
-9.162700000000000000e+04
-8.695000000000000000e+04
-8.697700000000000000e+04
-9.149400000000000000e+04
-9.443600000000000000e+04
-9.167300000000000000e+04
-8.699000000000000000e+04
-8.698200000000000000e+04
-9.147600000000000000e+04
-9.447400000000000000e+04
-9.163900000000000000e+04
-8.705900000000000000e+04
-8.702200000000000000e+04
-9.145200000000000000e+04
-9.441600000000000000e+04
-9.172100000000000000e+04
-8.706500000000000000e+04
-8.694300000000000000e+04
-9.142200000000000000e+04
-9.449900000000000000e+04
-9.176000000000000000e+04
-8.710200000000000000e+04
-8.695500000000000000e+04
-9.133600000000000000e+04
-9.438900000000000000e+04
-9.176900000000000000e+04
-8.709000000000000000e+04
-8.692200000000000000e+04
-9.138200000000000000e+04
-9.446200000000000000e+04
-9.181900000000000000e+04
-8.714400000000000000e+04
-8.697900000000000000e+04
-9.136300000000000000e+04
-9.456000000000000000e+04
-9.180400000000000000e+04
-8.706500000000000000e+04
-8.686800000000000000e+04
-9.129700000000000000e+04
-9.437600000000000000e+04
-9.182600000000000000e+04
-8.718400000000000000e+04
-8.688400000000000000e+04
-9.127300000000000000e+04
-9.445800000000000000e+04
-9.201500000000000000e+04
-8.718700000000000000e+04
-8.685900000000000000e+04
-9.126400000000000000e+04
-9.439300000000000000e+04
-9.189700000000000000e+04
-8.722100000000000000e+04
-8.687100000000000000e+04
-9.126400000000000000e+04
-9.450500000000000000e+04
-9.200600000000000000e+04
-8.728400000000000000e+04
-8.685400000000000000e+04
-9.134400000000000000e+04
-9.445100000000000000e+04
-9.197600000000000000e+04
-8.728900000000000000e+04
-8.685900000000000000e+04
-9.125400000000000000e+04
-9.450600000000000000e+04
-9.208200000000000000e+04
-8.740300000000000000e+04
-8.687000000000000000e+04
-9.118400000000000000e+04
-9.446100000000000000e+04
-9.208900000000000000e+04
-8.734100000000000000e+04
-8.683900000000000000e+04
-9.127900000000000000e+04
-9.499900000000000000e+04
-9.224100000000000000e+04
-8.742800000000000000e+04
-8.686300000000000000e+04
-9.115900000000000000e+04
-9.446800000000000000e+04
-9.236100000000000000e+04
-8.873500000000000000e+04
-8.729700000000000000e+04
-9.117400000000000000e+04
-9.448600000000000000e+04
-9.220200000000000000e+04
-8.747900000000000000e+04
-8.684300000000000000e+04
-9.111800000000000000e+04
-9.453500000000000000e+04
-9.226900000000000000e+04
-8.742700000000000000e+04
-8.679500000000000000e+04
-9.114100000000000000e+04
-9.454600000000000000e+04
-9.222900000000000000e+04
-8.746700000000000000e+04
-8.683400000000000000e+04
-9.109000000000000000e+04
-9.455200000000000000e+04
-9.236300000000000000e+04
-8.748000000000000000e+04
-8.673000000000000000e+04
-9.109700000000000000e+04
-9.453100000000000000e+04
-9.224400000000000000e+04
-8.751400000000000000e+04
-8.678800000000000000e+04
-9.104500000000000000e+04
-9.454600000000000000e+04
-9.244700000000000000e+04
-8.752600000000000000e+04
-8.676700000000000000e+04
-9.101900000000000000e+04
-9.448700000000000000e+04
-9.236100000000000000e+04
-8.762100000000000000e+04
-8.672500000000000000e+04
-9.102800000000000000e+04
-9.452100000000000000e+04
-9.237100000000000000e+04
-8.763100000000000000e+04
-8.680400000000000000e+04
-9.103600000000000000e+04
-9.454700000000000000e+04
-9.249400000000000000e+04
-8.768200000000000000e+04
-8.677900000000000000e+04
-9.100100000000000000e+04
-9.452500000000000000e+04
-9.255100000000000000e+04
-8.782900000000000000e+04
-8.677600000000000000e+04
-9.088600000000000000e+04
-9.449000000000000000e+04
-9.249200000000000000e+04
-8.765400000000000000e+04
-8.676700000000000000e+04
-9.094600000000000000e+04
-9.453100000000000000e+04
-9.256600000000000000e+04
-8.776800000000000000e+04
-8.677700000000000000e+04
-9.096400000000000000e+04
-9.456600000000000000e+04
-9.261100000000000000e+04
-8.780700000000000000e+04
-8.675600000000000000e+04
-9.093200000000000000e+04
-9.458400000000000000e+04
-9.264600000000000000e+04
-8.787700000000000000e+04
-8.677100000000000000e+04
-9.087800000000000000e+04
-9.458100000000000000e+04
-9.266800000000000000e+04
-8.791200000000000000e+04
-8.676200000000000000e+04
-9.098300000000000000e+04
-9.448400000000000000e+04
-9.265300000000000000e+04
-8.797000000000000000e+04
-8.669400000000000000e+04
-9.081400000000000000e+04
-9.454600000000000000e+04
-9.271700000000000000e+04
-8.795200000000000000e+04
-8.674500000000000000e+04
-9.078900000000000000e+04
-9.447500000000000000e+04
-9.273800000000000000e+04
-8.792600000000000000e+04
-8.669800000000000000e+04
-9.079800000000000000e+04
-9.455000000000000000e+04
-9.279600000000000000e+04
-8.800400000000000000e+04
-8.670900000000000000e+04
-9.077600000000000000e+04
-9.456300000000000000e+04
-9.284200000000000000e+04
-8.803900000000000000e+04
-8.673900000000000000e+04
-9.078700000000000000e+04
-9.457100000000000000e+04
-9.293200000000000000e+04
-8.815100000000000000e+04
-8.674900000000000000e+04
-9.063100000000000000e+04
-9.452700000000000000e+04
-9.293100000000000000e+04
-8.804100000000000000e+04
-8.664100000000000000e+04
-9.063200000000000000e+04
-9.451700000000000000e+04
-9.291100000000000000e+04
-8.808900000000000000e+04
-8.668400000000000000e+04
-9.063400000000000000e+04
-9.450500000000000000e+04
-9.295500000000000000e+04
-8.819400000000000000e+04
-8.709400000000000000e+04
-9.081900000000000000e+04
-9.458100000000000000e+04
-9.302400000000000000e+04
-8.821400000000000000e+04
-8.670300000000000000e+04
-9.066300000000000000e+04
-9.450000000000000000e+04
-9.301800000000000000e+04
-8.821800000000000000e+04
-8.669700000000000000e+04
-9.071400000000000000e+04
-9.456500000000000000e+04
-9.305200000000000000e+04
-8.818800000000000000e+04
-8.668200000000000000e+04
-9.065700000000000000e+04
-9.452200000000000000e+04
-9.301900000000000000e+04
-8.829400000000000000e+04
-8.670600000000000000e+04
-9.060600000000000000e+04
-9.458000000000000000e+04
-9.319100000000000000e+04
-8.838400000000000000e+04
-8.669900000000000000e+04
-9.062900000000000000e+04
-9.470900000000000000e+04
-9.345800000000000000e+04
-8.861600000000000000e+04
-8.663300000000000000e+04
-9.043700000000000000e+04
-9.452300000000000000e+04
-9.336900000000000000e+04
-8.869700000000000000e+04
-8.681700000000000000e+04
-9.058200000000000000e+04
-9.486600000000000000e+04
-9.365500000000000000e+04
-8.890700000000000000e+04
-8.772400000000000000e+04
-9.122200000000000000e+04
-9.483900000000000000e+04
-9.329400000000000000e+04
-8.832900000000000000e+04
-8.681600000000000000e+04
-9.107200000000000000e+04
-9.558600000000000000e+04
-9.399100000000000000e+04
-8.868400000000000000e+04
-8.680900000000000000e+04
-9.113400000000000000e+04
-9.569900000000000000e+04
-9.458400000000000000e+04
-8.979700000000000000e+04
-8.786200000000000000e+04
-9.192500000000000000e+04
-9.555900000000000000e+04
-9.408900000000000000e+04
-8.897600000000000000e+04
-8.773700000000000000e+04
-9.206200000000000000e+04
-9.630900000000000000e+04
-9.562700000000000000e+04
-9.077800000000000000e+04
-8.749900000000000000e+04
-9.156200000000000000e+04
-9.628000000000000000e+04
-9.429800000000000000e+04
-8.905400000000000000e+04
-8.854100000000000000e+04
-9.381100000000000000e+04
-9.844800000000000000e+04
-9.501400000000000000e+04
-9.020600000000000000e+04
-8.885800000000000000e+04
-9.339300000000000000e+04
-9.663600000000000000e+04
-9.534100000000000000e+04
-8.926900000000000000e+04
-8.674700000000000000e+04
-9.217000000000000000e+04
-9.782600000000000000e+04
-9.628100000000000000e+04
-9.090900000000000000e+04
-8.916400000000000000e+04
-9.264600000000000000e+04
-9.596100000000000000e+04
-9.449600000000000000e+04
-8.981100000000000000e+04
-8.881100000000000000e+04
-9.270000000000000000e+04
-9.768900000000000000e+04
-9.609900000000000000e+04
-9.132700000000000000e+04
-8.761900000000000000e+04
-9.142000000000000000e+04
-9.737400000000000000e+04
-9.714900000000000000e+04
-9.176700000000000000e+04
-8.920100000000000000e+04
-9.233100000000000000e+04
-9.567700000000000000e+04
-9.427700000000000000e+04
-9.024700000000000000e+04
-8.818400000000000000e+04
-9.116100000000000000e+04
-9.616300000000000000e+04
-9.607400000000000000e+04
-9.129200000000000000e+04
-8.911700000000000000e+04
-9.195100000000000000e+04
-9.596400000000000000e+04
-9.499900000000000000e+04
-9.103700000000000000e+04
-8.904500000000000000e+04
-9.206700000000000000e+04
-9.615700000000000000e+04
-9.595600000000000000e+04
-9.056100000000000000e+04
-8.752400000000000000e+04
-9.141200000000000000e+04
-9.603400000000000000e+04
-9.498100000000000000e+04
-9.096100000000000000e+04
-8.943700000000000000e+04
-9.254400000000000000e+04
-9.570200000000000000e+04
-9.496800000000000000e+04
-9.056400000000000000e+04
-8.920400000000000000e+04
-9.220700000000000000e+04
-9.513900000000000000e+04
-9.499300000000000000e+04
-9.004200000000000000e+04
-8.811600000000000000e+04
-9.136600000000000000e+04
-9.552100000000000000e+04
-9.587600000000000000e+04
-9.247900000000000000e+04
-8.851400000000000000e+04
-9.075600000000000000e+04
-9.476300000000000000e+04
-9.478700000000000000e+04
-9.043400000000000000e+04
-8.762000000000000000e+04
-9.106700000000000000e+04
-9.517900000000000000e+04
-9.517900000000000000e+04
-9.054200000000000000e+04
-8.763000000000000000e+04
-9.075500000000000000e+04
-9.522700000000000000e+04
-9.493400000000000000e+04
-9.030500000000000000e+04
-8.742500000000000000e+04
-9.067400000000000000e+04
-9.520200000000000000e+04
-9.479400000000000000e+04
-9.027900000000000000e+04
-8.766400000000000000e+04
-9.077400000000000000e+04
-9.491700000000000000e+04
-9.474700000000000000e+04
-9.012100000000000000e+04
-8.740700000000000000e+04
-9.042800000000000000e+04
-9.464900000000000000e+04
-9.453800000000000000e+04
-9.009000000000000000e+04
-8.739300000000000000e+04
-9.057900000000000000e+04
-9.488000000000000000e+04
-9.429000000000000000e+04
-8.960200000000000000e+04
-8.678800000000000000e+04
-9.003900000000000000e+04
-9.457700000000000000e+04
-9.433300000000000000e+04
-8.966400000000000000e+04
-8.694100000000000000e+04
-8.995500000000000000e+04
-9.438000000000000000e+04
-9.409600000000000000e+04
-8.949300000000000000e+04
-8.669200000000000000e+04
-8.989200000000000000e+04
-9.433800000000000000e+04
-9.395200000000000000e+04
-8.940700000000000000e+04
-8.636100000000000000e+04
-8.948200000000000000e+04
-9.397600000000000000e+04
-9.372500000000000000e+04
-8.939700000000000000e+04
-8.639300000000000000e+04
-8.937600000000000000e+04
-9.395500000000000000e+04
-9.378800000000000000e+04
-8.921300000000000000e+04
-8.638600000000000000e+04
-8.950800000000000000e+04
-9.381900000000000000e+04
-9.349900000000000000e+04
-8.897300000000000000e+04
-8.612000000000000000e+04
-8.922800000000000000e+04
-9.373600000000000000e+04
-9.370000000000000000e+04
-8.924600000000000000e+04
-8.623900000000000000e+04
-8.919700000000000000e+04
-9.366100000000000000e+04
-9.368300000000000000e+04
-8.912200000000000000e+04
-8.626300000000000000e+04
-8.915400000000000000e+04
-9.339500000000000000e+04
-9.342700000000000000e+04
-8.908300000000000000e+04
-8.605700000000000000e+04
-8.902400000000000000e+04
-9.345900000000000000e+04
-9.350100000000000000e+04
-8.916700000000000000e+04
-8.616600000000000000e+04
-8.890900000000000000e+04
-9.354100000000000000e+04
-9.358100000000000000e+04
-8.910200000000000000e+04
-8.626400000000000000e+04
-8.906600000000000000e+04
-9.344000000000000000e+04
-9.348900000000000000e+04
-8.899000000000000000e+04
-8.602000000000000000e+04
-8.904600000000000000e+04
-9.355100000000000000e+04
-9.357900000000000000e+04
-8.908800000000000000e+04
-8.601900000000000000e+04
-8.899100000000000000e+04
-9.354200000000000000e+04
-9.352800000000000000e+04
-8.907700000000000000e+04
-8.609600000000000000e+04
-8.904900000000000000e+04
-9.345900000000000000e+04
-9.360600000000000000e+04
-8.922600000000000000e+04
-8.601700000000000000e+04
-8.882900000000000000e+04
-9.339300000000000000e+04
-9.366700000000000000e+04
-8.919700000000000000e+04
-8.606500000000000000e+04
-8.935200000000000000e+04
-9.367900000000000000e+04
-9.368800000000000000e+04
-8.920900000000000000e+04
-8.614600000000000000e+04
-8.891000000000000000e+04
-9.340100000000000000e+04
-9.369200000000000000e+04
-8.934700000000000000e+04
-8.629900000000000000e+04
-8.892900000000000000e+04
-9.338100000000000000e+04
-9.361400000000000000e+04
-8.931900000000000000e+04
-8.609700000000000000e+04
-8.886100000000000000e+04
-9.324000000000000000e+04
-9.366000000000000000e+04
-8.932600000000000000e+04
-8.610400000000000000e+04
-8.883200000000000000e+04
-9.335000000000000000e+04
-9.375900000000000000e+04
-8.940000000000000000e+04
-8.614400000000000000e+04
-8.884100000000000000e+04
-9.331100000000000000e+04
-9.372400000000000000e+04
-8.953100000000000000e+04
-8.609100000000000000e+04
-8.873900000000000000e+04
-9.323600000000000000e+04
-9.374700000000000000e+04
-8.941700000000000000e+04
-8.612800000000000000e+04
-8.878100000000000000e+04
-9.325200000000000000e+04
-9.370400000000000000e+04
-8.943200000000000000e+04
-8.616900000000000000e+04
-8.875700000000000000e+04
-9.329400000000000000e+04
-9.380000000000000000e+04
-8.945300000000000000e+04
-8.613100000000000000e+04
-8.870900000000000000e+04
-9.322700000000000000e+04
-9.373400000000000000e+04
-8.946200000000000000e+04
-8.613100000000000000e+04
-8.869800000000000000e+04
-9.329800000000000000e+04
-9.382300000000000000e+04
-8.958600000000000000e+04
-8.615700000000000000e+04
-8.854800000000000000e+04
-9.314100000000000000e+04
-9.381100000000000000e+04
-8.961700000000000000e+04
-8.617200000000000000e+04
-8.852700000000000000e+04
-9.316400000000000000e+04
-9.388200000000000000e+04
-8.960900000000000000e+04
-8.621700000000000000e+04
-8.861900000000000000e+04
-9.322700000000000000e+04
-9.393000000000000000e+04
-8.964600000000000000e+04
-8.615600000000000000e+04
-8.854900000000000000e+04
-9.314100000000000000e+04
-9.397100000000000000e+04
-8.973000000000000000e+04
-8.625200000000000000e+04
-8.859400000000000000e+04
-9.321800000000000000e+04
-9.405000000000000000e+04
-8.976500000000000000e+04
-8.616900000000000000e+04
-8.860200000000000000e+04
-9.326400000000000000e+04
-9.409000000000000000e+04
-8.984300000000000000e+04
-8.622800000000000000e+04
-8.859900000000000000e+04
-9.315900000000000000e+04
-9.404100000000000000e+04
-8.988100000000000000e+04
-8.633200000000000000e+04
-8.852200000000000000e+04
-9.321600000000000000e+04
-9.413100000000000000e+04
-8.990800000000000000e+04
-8.633500000000000000e+04
-8.850900000000000000e+04
-9.313200000000000000e+04
-9.413400000000000000e+04
-9.000500000000000000e+04
-8.637000000000000000e+04
-8.852600000000000000e+04
-9.318800000000000000e+04
-9.412600000000000000e+04
-8.998900000000000000e+04
-8.632000000000000000e+04
-8.847400000000000000e+04
-9.315700000000000000e+04
-9.414100000000000000e+04
-9.002900000000000000e+04
-8.631500000000000000e+04
-8.839100000000000000e+04
-9.302600000000000000e+04
-9.411900000000000000e+04
-9.002000000000000000e+04
-8.629700000000000000e+04
-8.842300000000000000e+04
-9.312800000000000000e+04
-9.420100000000000000e+04
-9.013900000000000000e+04
-8.636400000000000000e+04
-8.834400000000000000e+04
-9.301100000000000000e+04
-9.415700000000000000e+04
-9.015400000000000000e+04
-8.642200000000000000e+04
-8.841900000000000000e+04
-9.306300000000000000e+04
-9.420200000000000000e+04
-9.016900000000000000e+04
-8.645900000000000000e+04
-8.843800000000000000e+04
-9.312900000000000000e+04
-9.436800000000000000e+04
-9.058300000000000000e+04
-8.796100000000000000e+04
-8.859100000000000000e+04
-9.298500000000000000e+04
-9.430600000000000000e+04
-9.017100000000000000e+04
-8.639900000000000000e+04
-8.834900000000000000e+04
-9.301700000000000000e+04
-9.430400000000000000e+04
-9.036100000000000000e+04
-8.648900000000000000e+04
-8.839000000000000000e+04
-9.310800000000000000e+04
-9.435700000000000000e+04
-9.031200000000000000e+04
-8.649900000000000000e+04
-8.841100000000000000e+04
-9.304600000000000000e+04
-9.429400000000000000e+04
-9.037300000000000000e+04
-8.651000000000000000e+04
-8.829700000000000000e+04
-9.303400000000000000e+04
-9.437200000000000000e+04
-9.041600000000000000e+04
-8.662500000000000000e+04
-8.841200000000000000e+04
-9.297300000000000000e+04
-9.434000000000000000e+04
-9.044500000000000000e+04
-8.651600000000000000e+04
-8.832300000000000000e+04
-9.302200000000000000e+04
-9.431300000000000000e+04
-9.039500000000000000e+04
-8.653400000000000000e+04
-8.832700000000000000e+04
-9.295400000000000000e+04
-9.436600000000000000e+04
-9.048600000000000000e+04
-8.655000000000000000e+04
-8.833200000000000000e+04
-9.294700000000000000e+04
-9.438400000000000000e+04
-9.051600000000000000e+04
-8.659100000000000000e+04
-8.830500000000000000e+04
-9.293200000000000000e+04
-9.436700000000000000e+04
-9.056900000000000000e+04
-8.672300000000000000e+04
-8.826100000000000000e+04
-9.287100000000000000e+04
-9.437600000000000000e+04
-9.054600000000000000e+04
-8.659200000000000000e+04
-8.824900000000000000e+04
-9.290300000000000000e+04
-9.447400000000000000e+04
-9.063000000000000000e+04
-8.664100000000000000e+04
-8.828300000000000000e+04
-9.289200000000000000e+04
-9.442400000000000000e+04
-9.063800000000000000e+04
-8.669800000000000000e+04
-8.829900000000000000e+04
-9.295500000000000000e+04
-9.460700000000000000e+04
-9.069500000000000000e+04
-8.661600000000000000e+04
-8.826600000000000000e+04
-9.293900000000000000e+04
-9.454000000000000000e+04
-9.073600000000000000e+04
-8.674800000000000000e+04
-8.831400000000000000e+04
-9.291700000000000000e+04
-9.452400000000000000e+04
-9.076400000000000000e+04
-8.668300000000000000e+04
-8.821200000000000000e+04
-9.287600000000000000e+04
-9.454500000000000000e+04
-9.084900000000000000e+04
-8.683100000000000000e+04
-8.823900000000000000e+04
-9.285900000000000000e+04
-9.456600000000000000e+04
-9.087200000000000000e+04
-8.690500000000000000e+04
-8.826400000000000000e+04
-9.285100000000000000e+04
-9.455300000000000000e+04
-9.083400000000000000e+04
-8.678400000000000000e+04
-8.819400000000000000e+04
-9.289900000000000000e+04
-9.464000000000000000e+04
-9.090800000000000000e+04
-8.687200000000000000e+04
-8.820100000000000000e+04
-9.283200000000000000e+04
-9.466600000000000000e+04
-9.101600000000000000e+04
-8.686200000000000000e+04
-8.820600000000000000e+04
-9.283700000000000000e+04
-9.468600000000000000e+04
-9.101100000000000000e+04
-8.678900000000000000e+04
-8.809700000000000000e+04
-9.275700000000000000e+04
-9.465100000000000000e+04
-9.106200000000000000e+04
-8.693700000000000000e+04
-8.813900000000000000e+04
-9.280100000000000000e+04
-9.471600000000000000e+04
-9.103700000000000000e+04
-8.690100000000000000e+04
-8.813100000000000000e+04
-9.275100000000000000e+04
-9.484900000000000000e+04
-9.156900000000000000e+04
-8.695900000000000000e+04
-8.807700000000000000e+04
-9.277400000000000000e+04
-9.473000000000000000e+04
-9.113900000000000000e+04
-8.694400000000000000e+04
-8.809000000000000000e+04
-9.272600000000000000e+04
-9.470600000000000000e+04
-9.118900000000000000e+04
-8.700400000000000000e+04
-8.800700000000000000e+04
-9.276800000000000000e+04
-9.475100000000000000e+04
-9.118400000000000000e+04
-8.697400000000000000e+04
-8.801700000000000000e+04
-9.259800000000000000e+04
-9.472200000000000000e+04
-9.127300000000000000e+04
-8.704200000000000000e+04
-8.804600000000000000e+04
-9.263700000000000000e+04
-9.478600000000000000e+04
-9.129900000000000000e+04
-8.699900000000000000e+04
-8.796700000000000000e+04
-9.266600000000000000e+04
-9.485900000000000000e+04
-9.131600000000000000e+04
-8.697200000000000000e+04
-8.800600000000000000e+04
-9.261400000000000000e+04
-9.479700000000000000e+04
-9.132100000000000000e+04
-8.701800000000000000e+04
-8.795700000000000000e+04
-9.258800000000000000e+04
-9.484200000000000000e+04
-9.146700000000000000e+04
-8.702500000000000000e+04
-8.790000000000000000e+04
-9.253100000000000000e+04
-9.481400000000000000e+04
-9.138200000000000000e+04
-8.703400000000000000e+04
-8.792300000000000000e+04
-9.258600000000000000e+04
-9.480200000000000000e+04
-9.146400000000000000e+04
-8.707400000000000000e+04
-8.786200000000000000e+04
-9.249400000000000000e+04
-9.482900000000000000e+04
-9.154400000000000000e+04
-8.717500000000000000e+04
-8.789400000000000000e+04
-9.247900000000000000e+04
-9.476100000000000000e+04
-9.148600000000000000e+04
-8.714200000000000000e+04
-8.786500000000000000e+04
-9.243100000000000000e+04
-9.482600000000000000e+04
-9.156900000000000000e+04
-8.720300000000000000e+04
-8.782800000000000000e+04
-9.243200000000000000e+04
-9.480700000000000000e+04
-9.158700000000000000e+04
-8.717600000000000000e+04
-8.784000000000000000e+04
-9.237400000000000000e+04
-9.476900000000000000e+04
-9.162500000000000000e+04
-8.720700000000000000e+04
-8.780200000000000000e+04
-9.231700000000000000e+04
-9.485900000000000000e+04
-9.166400000000000000e+04
-8.724100000000000000e+04
-8.780700000000000000e+04
-9.230400000000000000e+04
-9.483700000000000000e+04
-9.171600000000000000e+04
-8.723400000000000000e+04
-8.775200000000000000e+04
-9.242400000000000000e+04
-9.488700000000000000e+04
-9.167400000000000000e+04
-8.719100000000000000e+04
-8.772200000000000000e+04
-9.225600000000000000e+04
-9.486100000000000000e+04
-9.179400000000000000e+04
-8.732700000000000000e+04
-8.774900000000000000e+04
-9.225500000000000000e+04
-9.487600000000000000e+04
-9.182600000000000000e+04
-8.732900000000000000e+04
-8.776800000000000000e+04
-9.220800000000000000e+04
-9.484100000000000000e+04
-9.187200000000000000e+04
-8.729200000000000000e+04
-8.766900000000000000e+04
-9.216400000000000000e+04
-9.484200000000000000e+04
-9.182200000000000000e+04
-8.729400000000000000e+04
-8.765200000000000000e+04
-9.219100000000000000e+04
-9.485400000000000000e+04
-9.191200000000000000e+04
-8.737800000000000000e+04
-8.766800000000000000e+04
-9.217800000000000000e+04
-9.481300000000000000e+04
-9.190300000000000000e+04
-8.737100000000000000e+04
-8.757200000000000000e+04
-9.213800000000000000e+04
-9.487100000000000000e+04
-9.201600000000000000e+04
-8.778600000000000000e+04
-8.775500000000000000e+04
-9.213800000000000000e+04
-9.495100000000000000e+04
-9.205200000000000000e+04
-8.737700000000000000e+04
-8.751200000000000000e+04
-9.206100000000000000e+04
-9.491600000000000000e+04
-9.196600000000000000e+04
-8.734100000000000000e+04
-8.749100000000000000e+04
-9.202200000000000000e+04
-9.487700000000000000e+04
-9.204400000000000000e+04
-8.750500000000000000e+04
-8.749700000000000000e+04
-9.200200000000000000e+04
-9.485000000000000000e+04
-9.199400000000000000e+04
-8.742600000000000000e+04
-8.751900000000000000e+04
-9.200200000000000000e+04
-9.481900000000000000e+04
-9.198900000000000000e+04
-8.737000000000000000e+04
-8.743700000000000000e+04
-9.194900000000000000e+04
-9.485900000000000000e+04
-9.203200000000000000e+04
-8.745600000000000000e+04
-8.748400000000000000e+04
-9.193000000000000000e+04
-9.494300000000000000e+04
-9.210700000000000000e+04
-8.739600000000000000e+04
-8.740600000000000000e+04
-9.185200000000000000e+04
-9.481200000000000000e+04
-9.210100000000000000e+04
-8.749100000000000000e+04
-8.743600000000000000e+04
-9.187000000000000000e+04
-9.486300000000000000e+04
-9.218700000000000000e+04
-8.753400000000000000e+04
-8.740100000000000000e+04
-9.179400000000000000e+04
-9.485100000000000000e+04
-9.223500000000000000e+04
-8.761900000000000000e+04
-8.733400000000000000e+04
-9.177200000000000000e+04
-9.491900000000000000e+04
-9.228800000000000000e+04
-8.751900000000000000e+04
-8.731900000000000000e+04
-9.176300000000000000e+04
-9.484300000000000000e+04
-9.227600000000000000e+04
-8.761100000000000000e+04
-8.728200000000000000e+04
-9.174200000000000000e+04
-9.488300000000000000e+04
-9.232300000000000000e+04
-8.760900000000000000e+04
-8.735500000000000000e+04
-9.182000000000000000e+04
-9.483600000000000000e+04
-9.230100000000000000e+04
-8.760900000000000000e+04
-8.728700000000000000e+04
-9.170100000000000000e+04
-9.488200000000000000e+04
-9.236400000000000000e+04
-8.769500000000000000e+04
-8.729100000000000000e+04
-9.165100000000000000e+04
-9.488700000000000000e+04
-9.242200000000000000e+04
-8.770500000000000000e+04
-8.727800000000000000e+04
-9.172400000000000000e+04
-9.487600000000000000e+04
-9.231200000000000000e+04
-8.768300000000000000e+04
-8.723500000000000000e+04
-9.157600000000000000e+04
-9.486400000000000000e+04
-9.243900000000000000e+04
-8.765300000000000000e+04
-8.721900000000000000e+04
-9.155700000000000000e+04
-9.485200000000000000e+04
-9.246000000000000000e+04
-8.772900000000000000e+04
-8.721200000000000000e+04
-9.155200000000000000e+04
-9.488700000000000000e+04
-9.250800000000000000e+04
-8.767400000000000000e+04
-8.715000000000000000e+04
-9.150600000000000000e+04
-9.483000000000000000e+04
-9.247500000000000000e+04
-8.779400000000000000e+04
-8.716300000000000000e+04
-9.150700000000000000e+04
-9.486400000000000000e+04
-9.251100000000000000e+04
-8.778100000000000000e+04
-8.720300000000000000e+04
-9.149800000000000000e+04
-9.492500000000000000e+04
-9.255500000000000000e+04
-8.773900000000000000e+04
-8.718000000000000000e+04
-9.150100000000000000e+04
-9.483100000000000000e+04
-9.252100000000000000e+04
-8.780500000000000000e+04
-8.714300000000000000e+04
-9.138400000000000000e+04
-9.479600000000000000e+04
-9.259300000000000000e+04
-8.790100000000000000e+04
-8.716100000000000000e+04
-9.156300000000000000e+04
-9.522800000000000000e+04
-9.270300000000000000e+04
-8.800300000000000000e+04
-8.717100000000000000e+04
-9.134200000000000000e+04
-9.480900000000000000e+04
-9.263200000000000000e+04
-8.792300000000000000e+04
-8.716100000000000000e+04
-9.143600000000000000e+04
-9.486200000000000000e+04
-9.268200000000000000e+04
-8.798900000000000000e+04
-8.714900000000000000e+04
-9.139500000000000000e+04
-9.486900000000000000e+04
-9.268000000000000000e+04
-8.795500000000000000e+04
-8.715200000000000000e+04
-9.139200000000000000e+04
-9.479400000000000000e+04
-9.268800000000000000e+04
-8.800300000000000000e+04
-8.707200000000000000e+04
-9.127700000000000000e+04
-9.482700000000000000e+04
-9.278300000000000000e+04
-8.803000000000000000e+04
-8.709500000000000000e+04
-9.130600000000000000e+04
-9.492100000000000000e+04
-9.280800000000000000e+04
-8.800900000000000000e+04
-8.706100000000000000e+04
-9.124700000000000000e+04
-9.484200000000000000e+04
-9.292700000000000000e+04
-8.809600000000000000e+04
-8.703200000000000000e+04
-9.119900000000000000e+04
-9.477400000000000000e+04
-9.281100000000000000e+04
-8.809900000000000000e+04
-8.706400000000000000e+04
-9.120600000000000000e+04
-9.478800000000000000e+04
-9.290300000000000000e+04
-8.817400000000000000e+04
-8.704200000000000000e+04
-9.114000000000000000e+04
-9.481400000000000000e+04
-9.287700000000000000e+04
-8.807200000000000000e+04
-8.701100000000000000e+04
-9.112200000000000000e+04
-9.479200000000000000e+04
-9.293600000000000000e+04
-8.821000000000000000e+04
-8.703000000000000000e+04
-9.108900000000000000e+04
-9.476200000000000000e+04
-9.300100000000000000e+04
-8.826500000000000000e+04
-8.689700000000000000e+04
-9.104700000000000000e+04
-9.473800000000000000e+04
-9.291200000000000000e+04
-8.819000000000000000e+04
-8.699000000000000000e+04
-9.107700000000000000e+04
-9.483400000000000000e+04
-9.303400000000000000e+04
-8.827600000000000000e+04
-8.701500000000000000e+04
-9.099700000000000000e+04
-9.470600000000000000e+04
-9.309900000000000000e+04
-8.834400000000000000e+04
-8.697100000000000000e+04
-9.097400000000000000e+04
-9.474500000000000000e+04
-9.305400000000000000e+04
-8.828900000000000000e+04
-8.699700000000000000e+04
-9.101900000000000000e+04
-9.480900000000000000e+04
-9.314800000000000000e+04
-8.835200000000000000e+04
-8.694600000000000000e+04
-9.092600000000000000e+04
-9.474300000000000000e+04
-9.309900000000000000e+04
-8.844000000000000000e+04
-8.699900000000000000e+04
-9.090700000000000000e+04
-9.473400000000000000e+04
-9.320300000000000000e+04
-8.846700000000000000e+04
-8.701700000000000000e+04
-9.095800000000000000e+04
-9.476500000000000000e+04
-9.326400000000000000e+04
-8.849200000000000000e+04
-8.697400000000000000e+04
-9.087400000000000000e+04
-9.470400000000000000e+04
-9.324900000000000000e+04
-8.848600000000000000e+04
-8.693900000000000000e+04
-9.086200000000000000e+04
-9.474200000000000000e+04
-9.328400000000000000e+04
-8.851900000000000000e+04
-8.703700000000000000e+04
-9.087400000000000000e+04
-9.467200000000000000e+04
-9.324700000000000000e+04
-8.853800000000000000e+04
-8.694400000000000000e+04
-9.082100000000000000e+04
-9.478700000000000000e+04
-9.330400000000000000e+04
-8.852900000000000000e+04
-8.694100000000000000e+04
-9.078700000000000000e+04
-9.474700000000000000e+04
-9.340800000000000000e+04
-8.872700000000000000e+04
-8.737600000000000000e+04
-9.085900000000000000e+04
-9.503600000000000000e+04
-9.394400000000000000e+04
-8.885600000000000000e+04
-8.689000000000000000e+04
-9.074200000000000000e+04
-9.472000000000000000e+04
-9.343400000000000000e+04
-8.867700000000000000e+04
-8.699900000000000000e+04
-9.073700000000000000e+04
-9.465400000000000000e+04
-9.340800000000000000e+04
-8.867700000000000000e+04
-8.689900000000000000e+04
-9.068400000000000000e+04
-9.470500000000000000e+04
-9.347100000000000000e+04
-8.872800000000000000e+04
-8.696900000000000000e+04
-9.064200000000000000e+04
-9.463400000000000000e+04
-9.346200000000000000e+04
-8.874700000000000000e+04
-8.694300000000000000e+04
-9.068100000000000000e+04
-9.472900000000000000e+04
-9.355700000000000000e+04
-8.879400000000000000e+04
-8.691300000000000000e+04
-9.063300000000000000e+04
-9.469500000000000000e+04
-9.357900000000000000e+04
-8.879400000000000000e+04
-8.688500000000000000e+04
-9.058300000000000000e+04
-9.465100000000000000e+04
-9.355700000000000000e+04
-8.892700000000000000e+04
-8.697200000000000000e+04
-9.058700000000000000e+04
-9.470900000000000000e+04
-9.367700000000000000e+04
-8.887200000000000000e+04
-8.681400000000000000e+04
-9.053800000000000000e+04
-9.466400000000000000e+04
-9.360800000000000000e+04
-8.894300000000000000e+04
-8.693600000000000000e+04
-9.056100000000000000e+04
-9.462400000000000000e+04
-9.367800000000000000e+04
-8.906600000000000000e+04
-8.688000000000000000e+04
-9.053200000000000000e+04
-9.462600000000000000e+04
-9.361700000000000000e+04
-8.896600000000000000e+04
-8.692500000000000000e+04
-9.052700000000000000e+04
-9.458100000000000000e+04
-9.370600000000000000e+04
-8.904100000000000000e+04
-8.690400000000000000e+04
-9.049400000000000000e+04
-9.465000000000000000e+04
-9.380400000000000000e+04
-8.902400000000000000e+04
-8.691800000000000000e+04
-9.045000000000000000e+04
-9.461000000000000000e+04
-9.376900000000000000e+04
-8.910600000000000000e+04
-8.695700000000000000e+04
-9.041800000000000000e+04
-9.457400000000000000e+04
-9.380200000000000000e+04
-8.919600000000000000e+04
-8.694600000000000000e+04
-9.032400000000000000e+04
-9.457200000000000000e+04
-9.381600000000000000e+04
-8.910600000000000000e+04
-8.687700000000000000e+04
-9.040600000000000000e+04
-9.455700000000000000e+04
-9.378400000000000000e+04
-8.912600000000000000e+04
-8.687900000000000000e+04
-9.036100000000000000e+04
-9.464500000000000000e+04
-9.379600000000000000e+04
-8.913600000000000000e+04
-8.692000000000000000e+04
-9.027800000000000000e+04
-9.453400000000000000e+04
-9.386400000000000000e+04
-8.925700000000000000e+04
-8.687100000000000000e+04
-9.034200000000000000e+04
-9.450400000000000000e+04
-9.390200000000000000e+04
-8.932800000000000000e+04
-8.691100000000000000e+04
-9.022700000000000000e+04
-9.453900000000000000e+04
-9.400700000000000000e+04
-8.940700000000000000e+04
-8.692600000000000000e+04
-9.017200000000000000e+04
-9.448600000000000000e+04
-9.399100000000000000e+04
-8.937700000000000000e+04
-8.691200000000000000e+04
-9.023200000000000000e+04
-9.455400000000000000e+04
-9.402600000000000000e+04
-8.941400000000000000e+04
-8.683300000000000000e+04
-9.020100000000000000e+04
-9.453700000000000000e+04
-9.402700000000000000e+04
-8.940800000000000000e+04
-8.684300000000000000e+04
-9.019300000000000000e+04
-9.449800000000000000e+04
-9.433500000000000000e+04
-8.977300000000000000e+04
-8.697700000000000000e+04
-9.007600000000000000e+04
-9.453800000000000000e+04
-9.424400000000000000e+04
-8.956500000000000000e+04
-8.680900000000000000e+04
-9.005200000000000000e+04
-9.518600000000000000e+04
-9.553700000000000000e+04
-8.968400000000000000e+04
-8.681500000000000000e+04
-9.003600000000000000e+04
-9.440700000000000000e+04
-9.415100000000000000e+04
-8.955700000000000000e+04
-8.690900000000000000e+04
-9.010400000000000000e+04
-9.450100000000000000e+04
-9.412000000000000000e+04
-8.955000000000000000e+04
-8.685400000000000000e+04
-9.000000000000000000e+04
-9.443000000000000000e+04
-9.425900000000000000e+04
-8.965900000000000000e+04
-8.686900000000000000e+04
-8.992200000000000000e+04
-9.438900000000000000e+04
-9.425700000000000000e+04
-8.971600000000000000e+04
-8.681500000000000000e+04
-8.996700000000000000e+04
-9.441600000000000000e+04
-9.425400000000000000e+04
-8.973700000000000000e+04
-8.691400000000000000e+04
-8.991300000000000000e+04
-9.437200000000000000e+04
-9.431700000000000000e+04
-8.974500000000000000e+04
-8.684700000000000000e+04
-8.992300000000000000e+04
-9.443600000000000000e+04
-9.431000000000000000e+04
-8.972400000000000000e+04
-8.686200000000000000e+04
-8.985600000000000000e+04
-9.433200000000000000e+04
-9.431900000000000000e+04
-8.984800000000000000e+04
-8.687400000000000000e+04
-8.986400000000000000e+04
-9.433300000000000000e+04
-9.435400000000000000e+04
-8.983000000000000000e+04
-8.690700000000000000e+04
-8.984200000000000000e+04
-9.432700000000000000e+04
-9.431900000000000000e+04
-8.987400000000000000e+04
-8.689900000000000000e+04
-8.985100000000000000e+04
-9.434500000000000000e+04
-9.442700000000000000e+04
-8.993300000000000000e+04
-8.690300000000000000e+04
-8.984700000000000000e+04
-9.437400000000000000e+04
-9.452900000000000000e+04
-8.997300000000000000e+04
-8.688100000000000000e+04
-8.971400000000000000e+04
-9.430700000000000000e+04
-9.448700000000000000e+04
-9.002200000000000000e+04
-8.688300000000000000e+04
-8.971200000000000000e+04
-9.426900000000000000e+04
-9.448400000000000000e+04
-9.003600000000000000e+04
-8.693600000000000000e+04
-8.974600000000000000e+04
-9.430000000000000000e+04
-9.454000000000000000e+04
-9.012200000000000000e+04
-8.694900000000000000e+04
-8.969200000000000000e+04
-9.423100000000000000e+04
-9.456200000000000000e+04
-9.015400000000000000e+04
-8.717400000000000000e+04
-8.972100000000000000e+04
-9.428800000000000000e+04
-9.457100000000000000e+04
-9.009800000000000000e+04
-8.688100000000000000e+04
-8.962900000000000000e+04
-9.432500000000000000e+04
-9.449700000000000000e+04
-9.004700000000000000e+04
-8.684300000000000000e+04
-8.957500000000000000e+04
-9.418700000000000000e+04
-9.461900000000000000e+04
-9.028900000000000000e+04
-8.693400000000000000e+04
-8.962400000000000000e+04
-9.418400000000000000e+04
-9.459800000000000000e+04
-9.029100000000000000e+04
-8.697900000000000000e+04
-8.955400000000000000e+04
-9.414400000000000000e+04
-9.467100000000000000e+04
-9.032600000000000000e+04
-8.697700000000000000e+04
-8.962000000000000000e+04
-9.422200000000000000e+04
-9.468900000000000000e+04
-9.035200000000000000e+04
-8.691000000000000000e+04
-8.952600000000000000e+04
-9.415100000000000000e+04
-9.479900000000000000e+04
-9.039500000000000000e+04
-8.689700000000000000e+04
-8.980400000000000000e+04
-9.432900000000000000e+04
-9.475900000000000000e+04
-9.144200000000000000e+04
-8.928100000000000000e+04
-8.990300000000000000e+04
-9.410100000000000000e+04
-9.472400000000000000e+04
-9.042100000000000000e+04
-8.695600000000000000e+04
-8.946900000000000000e+04
-9.411600000000000000e+04
-9.473700000000000000e+04
-9.045600000000000000e+04
-8.705300000000000000e+04
-8.949300000000000000e+04
-9.409700000000000000e+04
-9.478200000000000000e+04
-9.043700000000000000e+04
-8.699100000000000000e+04
-8.942700000000000000e+04
-9.412400000000000000e+04
-9.480800000000000000e+04
-9.054300000000000000e+04
-8.707500000000000000e+04
-8.946700000000000000e+04
-9.401600000000000000e+04
-9.477000000000000000e+04
-9.056200000000000000e+04
-8.700200000000000000e+04
-8.937700000000000000e+04
-9.405700000000000000e+04
-9.487200000000000000e+04
-9.064600000000000000e+04
-8.705500000000000000e+04
-8.933800000000000000e+04
-9.403500000000000000e+04
-9.492200000000000000e+04
-9.078800000000000000e+04
-8.707400000000000000e+04
-8.927700000000000000e+04
-9.394000000000000000e+04
-9.484600000000000000e+04
-9.069600000000000000e+04
-8.708900000000000000e+04
-8.933000000000000000e+04
-9.401200000000000000e+04
-9.487100000000000000e+04
-9.072400000000000000e+04
-8.707300000000000000e+04
-8.929300000000000000e+04
-9.399300000000000000e+04
-9.491100000000000000e+04
-9.075100000000000000e+04
-8.710700000000000000e+04
-8.920200000000000000e+04
-9.388200000000000000e+04
-9.489400000000000000e+04
-9.080600000000000000e+04
-8.708700000000000000e+04
-8.921700000000000000e+04
-9.392200000000000000e+04
-9.499600000000000000e+04
-9.082800000000000000e+04
-8.712600000000000000e+04
-8.925700000000000000e+04
-9.391200000000000000e+04
-9.497500000000000000e+04
-9.090200000000000000e+04
-8.716000000000000000e+04
-8.927200000000000000e+04
-9.389900000000000000e+04
-9.495000000000000000e+04
-9.086800000000000000e+04
-8.714300000000000000e+04
-8.919100000000000000e+04
-9.382100000000000000e+04
-9.499700000000000000e+04
-9.098000000000000000e+04
-8.717200000000000000e+04
-8.914200000000000000e+04
-9.382900000000000000e+04
-9.504200000000000000e+04
-9.103700000000000000e+04
-8.720100000000000000e+04
-8.925700000000000000e+04
-9.384400000000000000e+04
-9.498800000000000000e+04
-9.097700000000000000e+04
-8.716700000000000000e+04
-8.908400000000000000e+04
-9.378600000000000000e+04
-9.509700000000000000e+04
-9.107500000000000000e+04
-8.725000000000000000e+04
-8.917200000000000000e+04
-9.379800000000000000e+04
-9.509700000000000000e+04
-9.106900000000000000e+04
-8.719100000000000000e+04
-8.902700000000000000e+04
-9.376500000000000000e+04
-9.512300000000000000e+04
-9.109600000000000000e+04
-8.720100000000000000e+04
-8.908100000000000000e+04
-9.369400000000000000e+04
-9.509600000000000000e+04
-9.115200000000000000e+04
-8.724400000000000000e+04
-8.902600000000000000e+04
-9.367800000000000000e+04
-9.517200000000000000e+04
-9.128700000000000000e+04
-8.734100000000000000e+04
-8.888500000000000000e+04
-9.362900000000000000e+04
-9.516900000000000000e+04
-9.124400000000000000e+04
-8.722400000000000000e+04
-8.894100000000000000e+04
-9.365900000000000000e+04
-9.515900000000000000e+04
-9.137400000000000000e+04
-8.726500000000000000e+04
-8.882600000000000000e+04
-9.360300000000000000e+04
-9.530200000000000000e+04
-9.180700000000000000e+04
-8.737500000000000000e+04
-8.894900000000000000e+04
-9.359800000000000000e+04
-9.533100000000000000e+04
-9.133600000000000000e+04
-8.721000000000000000e+04
-8.884900000000000000e+04
-9.356700000000000000e+04
-9.518200000000000000e+04
-9.134400000000000000e+04
-8.729300000000000000e+04
-8.887700000000000000e+04
-9.356600000000000000e+04
-9.518400000000000000e+04
-9.139200000000000000e+04
-8.738400000000000000e+04
-8.885200000000000000e+04
-9.344600000000000000e+04
-9.515700000000000000e+04
-9.143200000000000000e+04
-8.734900000000000000e+04
-8.878200000000000000e+04
-9.344200000000000000e+04
-9.520400000000000000e+04
-9.146600000000000000e+04
-8.734600000000000000e+04
-8.880400000000000000e+04
-9.348200000000000000e+04
-9.523600000000000000e+04
-9.152800000000000000e+04
-8.738100000000000000e+04
-8.875500000000000000e+04
-9.348500000000000000e+04
-9.528100000000000000e+04
-9.145000000000000000e+04
-8.735200000000000000e+04
-8.877300000000000000e+04
-9.329700000000000000e+04
-9.517200000000000000e+04
-9.148800000000000000e+04
-8.732300000000000000e+04
-8.867400000000000000e+04
-9.341800000000000000e+04
-9.522200000000000000e+04
-9.164500000000000000e+04
-8.735900000000000000e+04
-8.860600000000000000e+04
-9.332500000000000000e+04
-9.521900000000000000e+04
-9.161200000000000000e+04
-8.743600000000000000e+04
-8.862700000000000000e+04
-9.329100000000000000e+04
-9.518900000000000000e+04
-9.156400000000000000e+04
-8.737400000000000000e+04
-8.860500000000000000e+04
-9.330900000000000000e+04
-9.527200000000000000e+04
-9.166200000000000000e+04
-8.745100000000000000e+04
-8.849500000000000000e+04
-9.319500000000000000e+04
-9.521800000000000000e+04
-9.165400000000000000e+04
-8.739500000000000000e+04
-8.856600000000000000e+04
-9.317400000000000000e+04
-9.519400000000000000e+04
-9.165300000000000000e+04
-8.735900000000000000e+04
-8.848900000000000000e+04
-9.314600000000000000e+04
-9.524100000000000000e+04
-9.172200000000000000e+04
-8.736300000000000000e+04
-8.841100000000000000e+04
-9.313600000000000000e+04
-9.528100000000000000e+04
-9.170000000000000000e+04
-8.736700000000000000e+04
-8.843100000000000000e+04
-9.311200000000000000e+04
-9.519400000000000000e+04
-9.176200000000000000e+04
-8.740100000000000000e+04
-8.834400000000000000e+04
-9.301100000000000000e+04
-9.515900000000000000e+04
-9.175600000000000000e+04
-8.741900000000000000e+04
-8.837400000000000000e+04
-9.298000000000000000e+04
-9.518400000000000000e+04
-9.175200000000000000e+04
-8.741600000000000000e+04
-8.832800000000000000e+04
-9.293900000000000000e+04
-9.520300000000000000e+04
-9.182100000000000000e+04
-8.751100000000000000e+04
-8.823800000000000000e+04
-9.286600000000000000e+04
-9.516500000000000000e+04
-9.186500000000000000e+04
-8.743000000000000000e+04
-8.820600000000000000e+04
-9.282100000000000000e+04
-9.518400000000000000e+04
-9.184400000000000000e+04
-8.742000000000000000e+04
-8.817400000000000000e+04
-9.283600000000000000e+04
-9.523400000000000000e+04
-9.190600000000000000e+04
-8.743800000000000000e+04
-8.820400000000000000e+04
-9.281600000000000000e+04
-9.511600000000000000e+04
-9.185200000000000000e+04
-8.744200000000000000e+04
-8.811700000000000000e+04
-9.271300000000000000e+04
-9.512900000000000000e+04
-9.192200000000000000e+04
-8.741100000000000000e+04
-8.804100000000000000e+04
-9.273200000000000000e+04
-9.545900000000000000e+04
-9.231900000000000000e+04
-8.745100000000000000e+04
-8.814100000000000000e+04
-9.269900000000000000e+04
-9.501900000000000000e+04
-9.186500000000000000e+04
-8.742200000000000000e+04
-8.798800000000000000e+04
-9.260600000000000000e+04
-9.513600000000000000e+04
-9.187100000000000000e+04
-8.739600000000000000e+04
-8.795200000000000000e+04
-9.254700000000000000e+04
-9.507400000000000000e+04
-9.195200000000000000e+04
-8.746300000000000000e+04
-8.791900000000000000e+04
-9.255400000000000000e+04
-9.512400000000000000e+04
-9.193200000000000000e+04
-8.746100000000000000e+04
-8.786200000000000000e+04
-9.242800000000000000e+04
-9.503400000000000000e+04
-9.194300000000000000e+04
-8.746200000000000000e+04
-8.788400000000000000e+04
-9.245900000000000000e+04
-9.498200000000000000e+04
-9.194300000000000000e+04
-8.743400000000000000e+04
-8.783800000000000000e+04
-9.235900000000000000e+04
-9.504100000000000000e+04
-9.195600000000000000e+04
-8.737900000000000000e+04
-8.778100000000000000e+04
-9.231700000000000000e+04
-9.500400000000000000e+04
-9.183600000000000000e+04
-8.734600000000000000e+04
-8.766400000000000000e+04
-9.221800000000000000e+04
-9.495800000000000000e+04
-9.200700000000000000e+04
-8.744200000000000000e+04
-8.763500000000000000e+04
-9.219800000000000000e+04
-9.496100000000000000e+04
-9.203100000000000000e+04
-8.745400000000000000e+04
-8.761100000000000000e+04
-9.212600000000000000e+04
-9.496500000000000000e+04
-9.195600000000000000e+04
-8.740700000000000000e+04
-8.761500000000000000e+04
-9.212100000000000000e+04
-9.498100000000000000e+04
-9.207900000000000000e+04
-8.741600000000000000e+04
-8.750100000000000000e+04
-9.207600000000000000e+04
-9.483600000000000000e+04
-9.203200000000000000e+04
-8.746700000000000000e+04
-8.751200000000000000e+04
-9.199600000000000000e+04
-9.493500000000000000e+04
-9.205700000000000000e+04
-8.742700000000000000e+04
-8.747100000000000000e+04
-9.195500000000000000e+04
-9.491400000000000000e+04
-9.210800000000000000e+04
-8.745700000000000000e+04
-8.744100000000000000e+04
-9.192400000000000000e+04
-9.487600000000000000e+04
-9.216300000000000000e+04
-8.750400000000000000e+04
-8.740400000000000000e+04
-9.190200000000000000e+04
-9.481100000000000000e+04
-9.209600000000000000e+04
-8.744800000000000000e+04
-8.735900000000000000e+04
-9.182900000000000000e+04
-9.485300000000000000e+04
-9.216100000000000000e+04
-8.753800000000000000e+04
-8.742900000000000000e+04
-9.182400000000000000e+04
-9.480000000000000000e+04
-9.216600000000000000e+04
-8.757400000000000000e+04
-8.725200000000000000e+04
-9.165300000000000000e+04
-9.478800000000000000e+04
-9.216900000000000000e+04
-8.749400000000000000e+04
-8.725700000000000000e+04
-9.166200000000000000e+04
-9.478700000000000000e+04
-9.221700000000000000e+04
-8.754100000000000000e+04
-8.720000000000000000e+04
-9.167400000000000000e+04
-9.473400000000000000e+04
-9.223100000000000000e+04
-8.747400000000000000e+04
-8.708700000000000000e+04
-9.154100000000000000e+04
-9.472700000000000000e+04
-9.218500000000000000e+04
-8.751400000000000000e+04
-8.713900000000000000e+04
-9.151100000000000000e+04
-9.472300000000000000e+04
-9.222600000000000000e+04
-8.749500000000000000e+04
-8.707300000000000000e+04
-9.146200000000000000e+04
-9.472300000000000000e+04
-9.232700000000000000e+04
-8.804200000000000000e+04
-8.725300000000000000e+04
-9.145900000000000000e+04
-9.469200000000000000e+04
-9.244600000000000000e+04
-8.758900000000000000e+04
-8.697400000000000000e+04
-9.131700000000000000e+04
-9.464400000000000000e+04
-9.230100000000000000e+04
-8.754900000000000000e+04
-8.703100000000000000e+04
-9.141700000000000000e+04
-9.467200000000000000e+04
-9.221600000000000000e+04
-8.750900000000000000e+04
-8.696600000000000000e+04
-9.128400000000000000e+04
-9.458500000000000000e+04
-9.233700000000000000e+04
-8.756600000000000000e+04
-8.691000000000000000e+04
-9.123000000000000000e+04
-9.461900000000000000e+04
-9.235900000000000000e+04
-8.757700000000000000e+04
-8.691300000000000000e+04
-9.123200000000000000e+04
-9.463200000000000000e+04
-9.240700000000000000e+04
-8.767000000000000000e+04
-8.682600000000000000e+04
-9.108500000000000000e+04
-9.457200000000000000e+04
-9.240700000000000000e+04
-8.764900000000000000e+04
-8.680700000000000000e+04
-9.105200000000000000e+04
-9.462100000000000000e+04
-9.252600000000000000e+04
-8.768200000000000000e+04
-8.677500000000000000e+04
-9.104100000000000000e+04
-9.460400000000000000e+04
-9.251000000000000000e+04
-8.772900000000000000e+04
-8.672900000000000000e+04
-9.094500000000000000e+04
-9.454900000000000000e+04
-9.250500000000000000e+04
-8.765700000000000000e+04
-8.671500000000000000e+04
-9.095100000000000000e+04
-9.457600000000000000e+04
-9.259100000000000000e+04
-8.770400000000000000e+04
-8.672400000000000000e+04
-9.094100000000000000e+04
-9.453800000000000000e+04
-9.258400000000000000e+04
-8.775600000000000000e+04
-8.665400000000000000e+04
-9.093800000000000000e+04
-9.445300000000000000e+04
-9.251700000000000000e+04
-8.772900000000000000e+04
-8.670600000000000000e+04
-9.079700000000000000e+04
-9.445500000000000000e+04
-9.260000000000000000e+04
-8.778700000000000000e+04
-8.664900000000000000e+04
-9.076600000000000000e+04
-9.447300000000000000e+04
-9.264700000000000000e+04
-8.778400000000000000e+04
-8.658700000000000000e+04
-9.078000000000000000e+04
-9.460600000000000000e+04
-9.263600000000000000e+04
-8.779700000000000000e+04
-8.650100000000000000e+04
-9.066700000000000000e+04
-9.445000000000000000e+04
-9.268900000000000000e+04
-8.786000000000000000e+04
-8.651800000000000000e+04
-9.059200000000000000e+04
-9.444400000000000000e+04
-9.274000000000000000e+04
-8.786200000000000000e+04
-8.655200000000000000e+04
-9.059200000000000000e+04
-9.441900000000000000e+04
-9.273200000000000000e+04
-8.786900000000000000e+04
-8.650200000000000000e+04
-9.058100000000000000e+04
-9.448800000000000000e+04
-9.270700000000000000e+04
-8.786200000000000000e+04
-8.649100000000000000e+04
-9.050200000000000000e+04
-9.440000000000000000e+04
-9.271700000000000000e+04
-8.786700000000000000e+04
-8.643500000000000000e+04
-9.049000000000000000e+04
-9.439600000000000000e+04
-9.278100000000000000e+04
-8.789100000000000000e+04
-8.641800000000000000e+04
-9.043400000000000000e+04
-9.442300000000000000e+04
-9.284200000000000000e+04
-8.793900000000000000e+04
-8.650100000000000000e+04
-9.043300000000000000e+04
-9.435200000000000000e+04
-9.285400000000000000e+04
-8.800400000000000000e+04
-8.639400000000000000e+04
-9.045700000000000000e+04
-9.439300000000000000e+04
-9.274100000000000000e+04
-8.790300000000000000e+04
-8.640900000000000000e+04
-9.040400000000000000e+04
-9.472700000000000000e+04
-9.291000000000000000e+04
-8.799300000000000000e+04
-8.638900000000000000e+04
-9.032800000000000000e+04
-9.432800000000000000e+04
-9.292200000000000000e+04
-8.807600000000000000e+04
-8.640200000000000000e+04
-9.028900000000000000e+04
-9.426000000000000000e+04
-9.282400000000000000e+04
-8.804500000000000000e+04
-8.636700000000000000e+04
-9.027600000000000000e+04
-9.426700000000000000e+04
-9.287100000000000000e+04
-8.809100000000000000e+04
-8.644900000000000000e+04
-9.023100000000000000e+04
-9.426100000000000000e+04
-9.295200000000000000e+04
-8.812200000000000000e+04
-8.635700000000000000e+04
-9.018700000000000000e+04
-9.422200000000000000e+04
-9.302500000000000000e+04
-8.824900000000000000e+04
-8.635800000000000000e+04
-9.018300000000000000e+04
-9.420500000000000000e+04
-9.309700000000000000e+04
-8.837500000000000000e+04
-8.647000000000000000e+04
-9.025500000000000000e+04
-9.454400000000000000e+04
-9.314900000000000000e+04
-8.812500000000000000e+04
-8.624900000000000000e+04
-9.009900000000000000e+04
-9.445700000000000000e+04
-9.335300000000000000e+04
-8.872200000000000000e+04
-8.676900000000000000e+04
-9.029200000000000000e+04
-9.420700000000000000e+04
-9.311100000000000000e+04
-8.865100000000000000e+04
-8.730600000000000000e+04
-9.107900000000000000e+04
-9.527400000000000000e+04
-9.390100000000000000e+04
-8.846900000000000000e+04
-8.628800000000000000e+04
-9.051800000000000000e+04
-9.512400000000000000e+04
-9.465100000000000000e+04
-8.950100000000000000e+04
-8.717900000000000000e+04
-9.084400000000000000e+04
-9.561400000000000000e+04
-9.489200000000000000e+04
-8.952500000000000000e+04
-8.670100000000000000e+04
-9.123900000000000000e+04
-9.586200000000000000e+04
-9.478200000000000000e+04
-8.978700000000000000e+04
-8.812700000000000000e+04
-9.104700000000000000e+04
-9.495800000000000000e+04
-9.478700000000000000e+04
-9.024500000000000000e+04
-8.760700000000000000e+04
-9.187200000000000000e+04
-9.550700000000000000e+04
-9.562200000000000000e+04
-9.023100000000000000e+04
-8.725900000000000000e+04
-9.071800000000000000e+04
-9.516400000000000000e+04
-9.486200000000000000e+04
-9.112600000000000000e+04
-8.741500000000000000e+04
-9.074400000000000000e+04
-9.547600000000000000e+04
-9.533100000000000000e+04
-9.005000000000000000e+04
-8.692400000000000000e+04
-9.127800000000000000e+04
-9.583400000000000000e+04
-9.532800000000000000e+04
-9.081600000000000000e+04
-8.752400000000000000e+04
-9.131100000000000000e+04
-9.701200000000000000e+04
-9.504700000000000000e+04
-8.920800000000000000e+04
-8.747400000000000000e+04
-9.086200000000000000e+04
-9.463100000000000000e+04
-9.466600000000000000e+04
-9.037600000000000000e+04
-8.810200000000000000e+04
-9.149700000000000000e+04
-9.491600000000000000e+04
-9.444800000000000000e+04
-9.010100000000000000e+04
-8.814700000000000000e+04
-9.085600000000000000e+04
-9.539500000000000000e+04
-9.462400000000000000e+04
-9.004200000000000000e+04
-8.799200000000000000e+04
-9.085100000000000000e+04
-9.519200000000000000e+04
-9.421900000000000000e+04
-9.047500000000000000e+04
-8.811200000000000000e+04
-9.107200000000000000e+04
-9.550900000000000000e+04
-9.444200000000000000e+04
-8.908900000000000000e+04
-8.676900000000000000e+04
-9.060900000000000000e+04
-9.588900000000000000e+04
-9.576200000000000000e+04
-9.047700000000000000e+04
-8.732600000000000000e+04
-8.994800000000000000e+04
-9.458900000000000000e+04
-9.419400000000000000e+04
-8.991100000000000000e+04
-8.790300000000000000e+04
-9.099400000000000000e+04
-9.541300000000000000e+04
-9.525500000000000000e+04
-8.956800000000000000e+04
-8.704400000000000000e+04
-9.064800000000000000e+04
-9.442900000000000000e+04
-9.417800000000000000e+04
-9.015100000000000000e+04
-8.749900000000000000e+04
-9.057000000000000000e+04
-9.532900000000000000e+04
-9.400100000000000000e+04
-8.947200000000000000e+04
-8.675600000000000000e+04
-9.028100000000000000e+04
-9.491200000000000000e+04
-9.429200000000000000e+04
-8.963100000000000000e+04
-8.664300000000000000e+04
-8.962500000000000000e+04
-9.475100000000000000e+04
-9.481000000000000000e+04
-8.974900000000000000e+04
-8.705800000000000000e+04
-9.038400000000000000e+04
-9.393300000000000000e+04
-9.402700000000000000e+04
-8.973900000000000000e+04
-8.635400000000000000e+04
-8.951300000000000000e+04
-9.425200000000000000e+04
-9.416700000000000000e+04
-8.954100000000000000e+04
-8.661100000000000000e+04
-8.940800000000000000e+04
-9.397100000000000000e+04
-9.417200000000000000e+04
-8.971400000000000000e+04
-8.675600000000000000e+04
-8.958500000000000000e+04
-9.387200000000000000e+04
-9.388100000000000000e+04
-8.931600000000000000e+04
-8.635600000000000000e+04
-8.936500000000000000e+04
-9.382600000000000000e+04
-9.375200000000000000e+04
-8.895700000000000000e+04
-8.605700000000000000e+04
-8.899300000000000000e+04
-9.369100000000000000e+04
-9.382300000000000000e+04
-8.906700000000000000e+04
-8.591200000000000000e+04
-8.885400000000000000e+04
-9.325900000000000000e+04
-9.336300000000000000e+04
-8.905000000000000000e+04
-8.590100000000000000e+04
-8.880200000000000000e+04
-9.301900000000000000e+04
-9.303400000000000000e+04
-8.874900000000000000e+04
-8.563200000000000000e+04
-8.833900000000000000e+04
-9.293400000000000000e+04
-9.311800000000000000e+04
-8.867200000000000000e+04
-8.583100000000000000e+04
-8.863700000000000000e+04
-9.288700000000000000e+04
-9.288100000000000000e+04
-8.844200000000000000e+04
-8.528100000000000000e+04
-8.795800000000000000e+04
-9.276200000000000000e+04
-9.278200000000000000e+04
-8.793900000000000000e+04
-8.499000000000000000e+04
-8.813900000000000000e+04
-9.263500000000000000e+04
-9.303500000000000000e+04
-8.857600000000000000e+04
-8.499100000000000000e+04
-8.797500000000000000e+04
-9.290100000000000000e+04
-9.294500000000000000e+04
-8.817400000000000000e+04
-8.508100000000000000e+04
-8.763600000000000000e+04
-9.216800000000000000e+04
-9.274900000000000000e+04
-8.823200000000000000e+04
-8.495400000000000000e+04
-8.786500000000000000e+04
-9.255200000000000000e+04
-9.305700000000000000e+04
-8.837100000000000000e+04
-8.515000000000000000e+04
-8.774400000000000000e+04
-9.241900000000000000e+04
-9.286700000000000000e+04
-8.852100000000000000e+04
-8.540900000000000000e+04
-8.802500000000000000e+04
-9.242200000000000000e+04
-9.278200000000000000e+04
-8.848400000000000000e+04
-8.521600000000000000e+04
-8.770400000000000000e+04
-9.227700000000000000e+04
-9.270200000000000000e+04
-8.837100000000000000e+04
-8.514900000000000000e+04
-8.778600000000000000e+04
-9.242200000000000000e+04
-9.290100000000000000e+04
-8.855700000000000000e+04
-8.532600000000000000e+04
-8.774200000000000000e+04
-9.250900000000000000e+04
-9.360600000000000000e+04
-8.876900000000000000e+04
-8.528300000000000000e+04
-8.777600000000000000e+04
-9.223600000000000000e+04
-9.281200000000000000e+04
-8.843900000000000000e+04
-8.513900000000000000e+04
-8.778600000000000000e+04
-9.240900000000000000e+04
-9.285600000000000000e+04
-8.852100000000000000e+04
-8.521400000000000000e+04
-8.780100000000000000e+04
-9.244400000000000000e+04
-9.288700000000000000e+04
-8.862700000000000000e+04
-8.519000000000000000e+04
-8.757400000000000000e+04
-9.230400000000000000e+04
-9.298800000000000000e+04
-8.855200000000000000e+04
-8.522500000000000000e+04
-8.777200000000000000e+04
-9.232300000000000000e+04
-9.281200000000000000e+04
-8.857200000000000000e+04
-8.521900000000000000e+04
-8.775700000000000000e+04
-9.222500000000000000e+04
-9.292100000000000000e+04
-8.865100000000000000e+04
-8.519400000000000000e+04
-8.769700000000000000e+04
-9.237900000000000000e+04
-9.303600000000000000e+04
-8.866900000000000000e+04
-8.523200000000000000e+04
-8.771500000000000000e+04
-9.223200000000000000e+04
-9.298600000000000000e+04
-8.867700000000000000e+04
-8.525000000000000000e+04
-8.762700000000000000e+04
-9.221700000000000000e+04
-9.297000000000000000e+04
-8.874600000000000000e+04
-8.515800000000000000e+04
-8.764900000000000000e+04
-9.230600000000000000e+04
-9.295900000000000000e+04
-8.876900000000000000e+04
-8.531200000000000000e+04
-8.753900000000000000e+04
-9.217900000000000000e+04
-9.309700000000000000e+04
-8.878900000000000000e+04
-8.522900000000000000e+04
-8.753700000000000000e+04
-9.230600000000000000e+04
-9.320700000000000000e+04
-8.890700000000000000e+04
-8.531800000000000000e+04
-8.759100000000000000e+04
-9.226800000000000000e+04
-9.309400000000000000e+04
-8.889500000000000000e+04
-8.529600000000000000e+04
-8.748900000000000000e+04
-9.217600000000000000e+04
-9.315400000000000000e+04
-8.902100000000000000e+04
-8.539700000000000000e+04
-8.748000000000000000e+04
-9.213100000000000000e+04
-9.319100000000000000e+04
-8.909200000000000000e+04
-8.533800000000000000e+04
-8.733100000000000000e+04
-9.210300000000000000e+04
-9.322000000000000000e+04
-8.901200000000000000e+04
-8.517600000000000000e+04
-8.738900000000000000e+04
-9.211400000000000000e+04
-9.317200000000000000e+04
-8.900300000000000000e+04
-8.527100000000000000e+04
-8.736600000000000000e+04
-9.211000000000000000e+04
-9.315800000000000000e+04
-8.910600000000000000e+04
-8.532900000000000000e+04
-8.734100000000000000e+04
-9.203200000000000000e+04
-9.311800000000000000e+04
-8.905600000000000000e+04
-8.532700000000000000e+04
-8.736500000000000000e+04
-9.212900000000000000e+04
-9.319400000000000000e+04
-8.914900000000000000e+04
-8.539500000000000000e+04
-8.737700000000000000e+04
-9.207000000000000000e+04
-9.329500000000000000e+04
-8.924100000000000000e+04
-8.538200000000000000e+04
-8.737200000000000000e+04
-9.199700000000000000e+04
-9.327100000000000000e+04
-8.923700000000000000e+04
-8.545100000000000000e+04
-8.744100000000000000e+04
-9.210100000000000000e+04
-9.330400000000000000e+04
-8.922100000000000000e+04
-8.543100000000000000e+04
-8.738400000000000000e+04
-9.211400000000000000e+04
-9.334200000000000000e+04
-8.939500000000000000e+04
-8.555500000000000000e+04
-8.736700000000000000e+04
-9.204000000000000000e+04
-9.331600000000000000e+04
-8.933100000000000000e+04
-8.558900000000000000e+04
-8.786000000000000000e+04
-9.222300000000000000e+04
-9.341100000000000000e+04
-8.938000000000000000e+04
-8.549700000000000000e+04
-8.741000000000000000e+04
-9.200500000000000000e+04
-9.330600000000000000e+04
-8.939700000000000000e+04
-8.557600000000000000e+04
-8.737900000000000000e+04
-9.200700000000000000e+04
-9.338700000000000000e+04
-8.943000000000000000e+04
-8.555400000000000000e+04
-8.736400000000000000e+04
-9.206200000000000000e+04
-9.341200000000000000e+04
-8.953100000000000000e+04
-8.561500000000000000e+04
-8.734100000000000000e+04
-9.208400000000000000e+04
-9.341700000000000000e+04
-8.949700000000000000e+04
-8.556200000000000000e+04
-8.733600000000000000e+04
-9.204700000000000000e+04
-9.345000000000000000e+04
-8.958900000000000000e+04
-8.570900000000000000e+04
-8.740000000000000000e+04
-9.202600000000000000e+04
-9.346100000000000000e+04
-8.962400000000000000e+04
-8.568600000000000000e+04
-8.732600000000000000e+04
-9.200200000000000000e+04
-9.358200000000000000e+04
-8.977500000000000000e+04
-8.568700000000000000e+04
-8.730700000000000000e+04
-9.198000000000000000e+04
-9.354400000000000000e+04
-8.972800000000000000e+04
-8.570600000000000000e+04
-8.736100000000000000e+04
-9.208200000000000000e+04
-9.358800000000000000e+04
-8.981400000000000000e+04
-8.569300000000000000e+04
-8.727500000000000000e+04
-9.197800000000000000e+04
-9.360800000000000000e+04
-8.983900000000000000e+04
-8.587100000000000000e+04
-8.730400000000000000e+04
-9.197200000000000000e+04
-9.365300000000000000e+04
-8.990900000000000000e+04
-8.565600000000000000e+04
-8.720900000000000000e+04
-9.192000000000000000e+04
-9.362000000000000000e+04
-8.984500000000000000e+04
-8.579200000000000000e+04
-8.727500000000000000e+04
-9.194200000000000000e+04
-9.358200000000000000e+04
-8.989900000000000000e+04
-8.580700000000000000e+04
-8.717600000000000000e+04
-9.184900000000000000e+04
-9.359800000000000000e+04
-8.987700000000000000e+04
-8.577000000000000000e+04
-8.714700000000000000e+04
-9.182200000000000000e+04
-9.369200000000000000e+04
-8.992000000000000000e+04
-8.586200000000000000e+04
-8.719400000000000000e+04
-9.177000000000000000e+04
-9.356300000000000000e+04
-8.995900000000000000e+04
-8.573400000000000000e+04
-8.704600000000000000e+04
-9.173200000000000000e+04
-9.358600000000000000e+04
-8.992200000000000000e+04
-8.579800000000000000e+04
-8.711700000000000000e+04
-9.167700000000000000e+04
-9.363200000000000000e+04
-9.004200000000000000e+04
-8.581700000000000000e+04
-8.705500000000000000e+04
-9.170800000000000000e+04
-9.364900000000000000e+04
-9.011200000000000000e+04
-8.587900000000000000e+04
-8.699500000000000000e+04
-9.167800000000000000e+04
-9.365300000000000000e+04
-9.009500000000000000e+04
-8.582300000000000000e+04
-8.698100000000000000e+04
-9.169000000000000000e+04
-9.371200000000000000e+04
-9.015200000000000000e+04
-8.589200000000000000e+04
-8.693300000000000000e+04
-9.159500000000000000e+04
-9.368200000000000000e+04
-9.014700000000000000e+04
-8.585800000000000000e+04
-8.688700000000000000e+04
-9.157700000000000000e+04
-9.371300000000000000e+04
-9.024700000000000000e+04
-8.587700000000000000e+04
-8.688500000000000000e+04
-9.150500000000000000e+04
-9.366900000000000000e+04
-9.024700000000000000e+04
-8.593400000000000000e+04
-8.691700000000000000e+04
-9.150600000000000000e+04
-9.384400000000000000e+04
-9.078700000000000000e+04
-8.608000000000000000e+04
-8.685000000000000000e+04
-9.146800000000000000e+04
-9.370600000000000000e+04
