-6.096206252205789497e+04
-6.383947822185056430e+04
-7.151186803827712720e+04
-7.409351698883791687e+04
-7.624181968787357619e+04
-6.314817314792305115e+04
-6.509763701971338014e+04
-7.080091632837503857e+04
-7.090320392834827362e+04
-7.530895262497958902e+04
-6.560195024436499807e+04
-6.845535887457731587e+04
-6.901817056198965292e+04
-6.962234126970911166e+04
-7.190599071026995080e+04
-6.867653201704264211e+04
-7.078425492568395566e+04
-6.805781234397711523e+04
-6.973346811110716953e+04
-6.834969876923116681e+04
-7.131167132473037054e+04
-7.068389957732919720e+04
-6.895678523011379002e+04
-6.962818912374075444e+04
-6.733847821319181821e+04
-7.182682098149214289e+04
-6.958307639687345363e+04
-7.035458776350044354e+04
-6.916702664346121310e+04
-6.876537499105010647e+04
-7.031237448198016500e+04
-6.925489526509797724e+04
-7.059782745661184890e+04
-6.925342979980645759e+04
-7.037551383886855911e+04
-6.881636674231325742e+04
-6.966990714470301464e+04
-6.982985592253576033e+04
-6.987558690036754706e+04
-7.063162899150437443e+04
-6.873603171295180800e+04
-6.989084612175871735e+04
-6.928962495095624763e+04
-7.021646938601169677e+04
-7.000257899592151807e+04
-6.956226777692249743e+04
-6.977376456228728057e+04
-6.946923070378082048e+04
-6.997471008879208239e+04
-6.956133573509244889e+04
-7.012561863081502088e+04
-6.965843283081860864e+04
-6.982934863687175675e+04
-6.962758897426513431e+04
-6.954812168046235456e+04
-7.008006364108540583e+04
-6.976005157546255214e+04
-6.993702087360485166e+04
-6.958915291668630380e+04
-6.972353393508825684e+04
-6.984135187471145764e+04
-6.985468005283440289e+04
-6.985513343211977917e+04
-6.976568301822683134e+04
-6.982740948505541019e+04
-6.975127538582589477e+04
-6.985124645051841799e+04
-6.980234864057847881e+04
-6.987804320880069281e+04
-6.986384697484169737e+04
-6.978793039597741154e+04
-6.983760729609466216e+04
-6.981748732389045472e+04
-6.988762311227912141e+04
-6.987523098813607066e+04
-6.983239319881965639e+04
-6.984323344975258806e+04
-6.984851967373712978e+04
-6.985692291783842666e+04
-6.985344699760900403e+04
-6.985543587189294340e+04
-6.985301071835859329e+04
-6.986254936723331048e+04
-6.985878510435136559e+04
-6.986393925376411062e+04
-6.986574451344442787e+04
-6.986856842591220629e+04
-6.987476648858070257e+04
-6.987566973446038901e+04
-6.987953897969282116e+04
-6.988704471161861147e+04
-6.989217675405435148e+04
-6.989139855567135965e+04
-6.989468555361164908e+04
-6.989565664689945697e+04
-6.989389570658486628e+04
-6.989989657561201602e+04
-6.990607528680854011e+04
-6.991067152178565448e+04
-6.990671313782715879e+04
-6.990945316681227996e+04
-6.991343582434605923e+04
-6.990885835444029362e+04
-6.991597152209069463e+04
-6.991976779720972991e+04
-6.992279580862192961e+04
-6.991507681028814113e+04
-6.993024303872730525e+04
-6.992301924360354315e+04
-6.992631956049532164e+04
-6.992303270523324318e+04
-6.993029197785467841e+04
-6.992507200063577329e+04
-6.992763993528412539e+04
-6.992756418375538487e+04
-6.993035162680188660e+04
-6.993532578673234093e+04
-6.993510633700995822e+04
-6.993557502032934281e+04
-6.993495755264435138e+04
-6.993556518416412291e+04
-6.994325021907281189e+04
-6.994436481900517538e+04
-6.995029456454218598e+04
-6.994842652028537123e+04
-6.994566533999207604e+04
-6.994441455766199215e+04
-6.995718644219047565e+04
-6.996168894575003651e+04
-6.996027797665023536e+04
-6.996663901636059745e+04
-6.995559798223726102e+04
-6.995862159547544434e+04
-6.995906449981944752e+04
-6.996878382059060095e+04
-6.997523443829572352e+04
-6.998671023332329059e+04
-6.998505712957038486e+04
-6.998232143660518341e+04
-6.998612889387596806e+04
-6.997963705020555062e+04
-6.998778185909609601e+04
-6.998436801758609363e+04
-6.999017307502284530e+04
-6.998151376473168784e+04
-6.998432337754705804e+04
-6.998840777543900185e+04
-7.000002523849959834e+04
-6.999614831215445884e+04
-6.999639238214654324e+04
-6.999688866958013386e+04
-7.000116270814393647e+04
-7.000587963965350355e+04
-7.001200043956909212e+04
-7.001455584664348862e+04
-7.002049530289479299e+04
-7.001257879103363666e+04
-7.000873188478600059e+04
-7.001777789269589994e+04
-7.003014469984827156e+04
-7.002575411762231670e+04
-7.003153724827020778e+04
-7.003889974898118817e+04
-7.003938213806253043e+04
-7.003293747780568083e+04
-7.003921974536214839e+04
-7.004063301657146076e+04
-7.004428024753284990e+04
-7.004411520285236475e+04
-7.003868552393380378e+04
-7.004345696754555684e+04
-7.005106427692373109e+04
-7.005385779606708093e+04
-7.005130053967067215e+04
-7.006228734060790157e+04
-7.005509474888665136e+04
-7.006110579052107641e+04
-7.006528923320071772e+04
-7.006486087622174819e+04
-7.005810849943532958e+04
-7.006065768225395004e+04
-7.006001651672925800e+04
-7.006468729616720520e+04
-7.007449375096701260e+04
-7.007574366001704766e+04
-7.006983665493768058e+04
-7.007419056597656163e+04
-7.008808421138185076e+04
-7.009932890766519995e+04
-7.008988470123842126e+04
-7.007217075030868000e+04
-7.006901839682152786e+04
-7.007531553416172392e+04
-7.010554307828539459e+04
-7.010090089159968193e+04
-7.009021730099042179e+04
-7.008224072678889206e+04
-7.009259972053252568e+04
-7.007970546273139189e+04
-7.008723194738202437e+04
-7.012176808955572778e+04
-7.011894006458317745e+04
-7.008510811866675795e+04
-7.003970512953594152e+04
-7.007721973129374965e+04
-7.015119819354430365e+04
-7.016545194714689569e+04
-7.009485866291599814e+04
-7.002563520972855622e+04
-7.006191543177465792e+04
-7.012383922081397031e+04
-7.015689001756180369e+04
-7.013900960279595165e+04
-7.010733374927433033e+04
-7.009294691522298672e+04
-7.003975253571322537e+04
-7.007778522536405944e+04
-7.016001269518434128e+04
-7.025708286680893798e+04
-7.015582335329381749e+04
-6.997905253056554648e+04
-6.996832888203975745e+04
-7.012575525728458888e+04
-7.033465142706791812e+04
-7.022079851749872614e+04
-7.004830801314927521e+04
-6.995703099104171270e+04
-7.008823719464339956e+04
-7.020318407556065358e+04
-7.021713400912439101e+04
-7.024451424152497202e+04
-7.012936347462220874e+04
-7.003285598780034343e+04
-6.987319325912008935e+04
-7.011031451917131199e+04
-7.044689447840099456e+04
-7.047447006680516643e+04
-7.007215580089813739e+04
-6.963070137342026283e+04
-6.991876090865339211e+04
-7.041231707490634290e+04
-7.064858528963511344e+04
-7.022467710926804284e+04
-6.984266064520552754e+04
-6.983398032865178538e+04
-6.997367685260722646e+04
-7.027893854079690936e+04
-7.049279199175869871e+04
-7.074785078930972668e+04
-7.007230712183484866e+04
-6.911592592694255291e+04
-6.916914660654425097e+04
-7.078052253628100152e+04
-7.227793521314475220e+04
-7.080618371127285354e+04
-6.798497055553806422e+04
-6.492176352894907905e+04
-6.243612752246170567e+04
-5.996358717877738673e+04
-6.049311372290907457e+04
-6.239626547705822304e+04
-6.331893041337434261e+04
-6.244155521466852224e+04
-6.146135652451695205e+04
-6.141360769930657261e+04
-6.175659155091844150e+04
-6.208087962663248618e+04
-6.214280217952452949e+04
-6.234592613154674473e+04
-6.215119544154345203e+04
-6.159955621582760068e+04
-6.155653246301261242e+04
-6.195744736782684049e+04
-6.247246454361676297e+04
-6.217728877937338257e+04
-6.174399540628269460e+04
-6.163182816460855247e+04
-6.195544052153793746e+04
-6.228693754027265823e+04
-6.227661647853848990e+04
-6.216381691407556355e+04
-6.198099659623730258e+04
-6.203105742625491985e+04
-6.202285821077578294e+04
-6.214270227193085884e+04
-6.231771081213075377e+04
-6.225041938235868292e+04
-6.211148940924806811e+04
-6.189876698558124917e+04
-6.200683356621189159e+04
-6.216316622809739783e+04
-6.230204739886043535e+04
-6.215267791057239083e+04
-6.196187846046090272e+04
-6.193811644741337659e+04
-6.192738962456448644e+04
-6.194611097724182036e+04
-6.184545830594524159e+04
-6.181363134278649522e+04
-6.180687631890885677e+04
-6.183821426870992582e+04
-6.188590000229231373e+04
-6.193200062451635313e+04
-6.206441673983164219e+04
-6.206979635519180010e+04
-6.205784064530461183e+04
-6.205993237738240714e+04
-6.218371215657949506e+04
-6.227727977479466790e+04
-6.221661321314130328e+04
-6.221789752661003149e+04
-6.220332748602969514e+04
-6.225767387260679243e+04
-6.224839030038518831e+04
-6.227597609793709125e+04
-6.226741592851248424e+04
-6.227839254829821584e+04
-6.227250463359399873e+04
-6.225218978343703930e+04
-6.232326226214813505e+04
-6.229234583834248770e+04
-6.229209889399942767e+04
-6.228435760957025195e+04
-6.227615736936545727e+04
-6.226705197708126798e+04
-6.231491272462032066e+04
-6.235406475977173250e+04
-6.233368735738091345e+04
-6.236286924717383954e+04
-6.236322731855909660e+04
-6.235745311820464121e+04
-6.233804012795672315e+04
-6.235494413455799076e+04
-6.240317731463041127e+04
-6.239673724653785757e+04
-6.240812676079699304e+04
-6.242113285196760989e+04
-6.241813452045803569e+04
-6.237804751917529211e+04
-6.239067934154562681e+04
-6.241459696035268280e+04
-6.236267769117747230e+04
-6.244116842452844139e+04
-6.246469796562839474e+04
-6.243414332119993196e+04
-6.250244772985994496e+04
-6.268199243013942760e+04
-6.259636150924742105e+04
-6.257973621726495185e+04
-6.267405530567750247e+04
-6.258540219722857728e+04
-6.249549228747518646e+04
-6.255130174275809259e+04
-6.243386777074448764e+04
-6.244335952957988047e+04
-6.258962809713764000e+04
-6.259297800391482451e+04
-6.260823552918026689e+04
-6.286719269932888710e+04
-6.281304543041715806e+04
-6.262827396786420286e+04
-6.263084557516809582e+04
-6.261875977217752370e+04
-6.252890816808639647e+04
-6.252997331224465597e+04
-6.261087806570271641e+04
-6.260137973039392091e+04
-6.258520893771572446e+04
-6.256357249094993313e+04
-6.255384738110067701e+04
-6.259399503457010724e+04
-6.260952486379605398e+04
-6.261646481528261938e+04
-6.260708692505725048e+04
-6.262001825303426449e+04
-6.259779356470452331e+04
-6.261154005569856963e+04
-6.263831592882924451e+04
-6.258568664717648062e+04
-6.260463988648688974e+04
-6.262377028928296204e+04
-6.262844922067241714e+04
-6.261237114650831791e+04
-6.264643215625816811e+04
-6.266788384064826096e+04
-6.265109324187156744e+04
-6.264177110247265227e+04
-6.265354625789744750e+04
-6.267608511051035748e+04
-6.267122893417669547e+04
-6.266976610973091738e+04
-6.267239243436221295e+04
-6.265046172242268949e+04
-6.268644076078226499e+04
-6.266691613691207021e+04
-6.266509730358047818e+04
-6.266801305159311596e+04
-6.269073038757438189e+04
-6.270834550561106153e+04
-6.267643120038555935e+04
-6.269191060649712017e+04
-6.272219558503300505e+04
-6.271065135477350123e+04
-6.266421255816770281e+04
-6.267208016336769651e+04
-6.268258680130577704e+04
-6.266346531532669178e+04
-6.269988100082103483e+04
-6.268340370847016311e+04
-6.272099108703697857e+04
-6.272773668753075617e+04
-6.271410274961063260e+04
-6.271609279363563110e+04
-6.268472844555968913e+04
-6.273380125765292905e+04
-6.276141118290054146e+04
-6.276756989748574415e+04
-6.271515676610768423e+04
-6.272334824266911164e+04
-6.274042827557433338e+04
-6.266325436773466936e+04
-6.271344379418185417e+04
-6.275258574049738672e+04
-6.288255060149799101e+04
-6.273006231560514425e+04
-6.275252996481730952e+04
-6.272907626445013011e+04
-6.271959365498869738e+04
-6.266470300115298596e+04
-6.270637217581288132e+04
-6.275034491639607586e+04
-6.272118036142986239e+04
-6.272358075474279030e+04
-6.268239233222964685e+04
-6.271573228803187521e+04
-6.272073636457395332e+04
-6.274553855974562612e+04
-6.273803777299535432e+04
-6.268364519556589948e+04
-6.273643976901226415e+04
-6.268821768695178616e+04
-6.266786997946926567e+04
-6.268099627817680448e+04
-6.269213554778941761e+04
-6.266515919893752289e+04
-6.268564426841335080e+04
-6.270469536829466233e+04
-6.269573603473542607e+04
-6.276852367941586272e+04
-6.271029227739517228e+04
-6.268807107811307651e+04
-6.267964075353730004e+04
-6.267289651214065088e+04
-6.270274454623000929e+04
-6.270512056825175387e+04
-6.272098317208643130e+04
-6.273385915230707178e+04
-6.272365771937122918e+04
-6.262881032895755197e+04
-6.266065681574048358e+04
-6.268615221765537717e+04
-6.266750908183958381e+04
-6.268159485490441875e+04
-6.269436636754713254e+04
-6.270628138294051314e+04
-6.269598147794613033e+04
-6.270664475168180797e+04
-6.271426627106284286e+04
-6.271538738152912265e+04
-6.271921383538925875e+04
-6.268962041892579873e+04
-6.269927474815663300e+04
-6.270775984111684375e+04
-6.273805820537728869e+04
-6.269836534898731770e+04
-6.271571848694441724e+04
-6.272774435073189670e+04
-6.273078997571832588e+04
-6.272572302193866199e+04
-6.272444246038993879e+04
-6.275324701293012913e+04
-6.273876589130062348e+04
-6.268370901809540374e+04
-6.269215612134654657e+04
-6.270337301358314289e+04
-6.271320277135093056e+04
-6.270651723407300597e+04
-6.273586755931100924e+04
-6.271932290249295329e+04
-6.275762603409323492e+04
-6.268994136293824704e+04
-6.268046872586599784e+04
-6.274912796519083349e+04
-6.270092965252774593e+04
-6.268771901979737595e+04
-6.270675011480497051e+04
-6.271097107428263553e+04
-6.263135577572436887e+04
-6.266593114075497579e+04
-6.266119989753099071e+04
-6.267261480893960106e+04
-6.269878871152971988e+04
-6.269785637145003420e+04
-6.271601445374904142e+04
-6.266203868085701106e+04
-6.268371648587030359e+04
-6.268542316115229187e+04
-6.269169171880067734e+04
-6.271071753789111972e+04
-6.263357020210164046e+04
-6.267528569947541837e+04
-6.272679050582003401e+04
-6.274915637546463404e+04
-6.272508810147689655e+04
-6.297052701223855547e+04
-6.288246973352013447e+04
-6.274128014714095480e+04
-6.277210748705390870e+04
-6.271230763736646622e+04
-6.261022210322836327e+04
-6.262732448423067399e+04
-6.268675056392364058e+04
-6.263836061664458975e+04
-6.271730925321122777e+04
-6.265512999028529885e+04
-6.266137932850911602e+04
-6.270775491305424657e+04
-6.270106725394874957e+04
-6.265212003485136665e+04
-6.264404541622885881e+04
-6.266177977550071955e+04
-6.265118509274706594e+04
-6.266432129490749503e+04
-6.268447061761377699e+04
-6.269495771685465297e+04
-6.268848471370594780e+04
-6.267332016462399770e+04
-6.266899891917203786e+04
-6.265259986274583935e+04
-6.270521041315037291e+04
-6.270025661202021001e+04
-6.268664058812543226e+04
-6.269057092738123902e+04
-6.268936146462542092e+04
-6.267784138781190995e+04
-6.268882953182015626e+04
-6.268172277377673163e+04
-6.267584856939558813e+04
-6.269935581126072066e+04
-6.265757158353774139e+04
-6.264627664364178054e+04
-6.267204492967273109e+04
-6.267355528986667923e+04
-6.266500169660948450e+04
-6.267694771049053816e+04
-6.266777931888154126e+04
-6.267997767560950888e+04
-6.269463716665065294e+04
-6.266200669292556995e+04
-6.267438989040180604e+04
-6.267524474968123832e+04
-6.267159289330668253e+04
-6.269152343651714182e+04
-6.269147730067594966e+04
-6.267735884890756279e+04
-6.270031282780313632e+04
-6.270445372090979799e+04
-6.262771543044796272e+04
-6.266382934673862474e+04
-6.267679702230034309e+04
-6.268887577160810906e+04
-6.259424761092753761e+04
-6.266155741287163983e+04
-6.269695641581207019e+04
-6.271237358185359335e+04
-6.268775277756905416e+04
-6.281646144291150995e+04
-6.279400010881458002e+04
-6.270228245862277981e+04
-6.269502052224241197e+04
-6.269427446264545870e+04
-6.266620873522709007e+04
-6.268080416095064720e+04
-6.271579064541123080e+04
-6.264802945218868263e+04
-6.262878516890167521e+04
-6.263859986600719276e+04
-6.262285163397828728e+04
-6.263340849733338837e+04
-6.269093199603911489e+04
-6.272168828249598300e+04
-6.265694370457887999e+04
-6.264691845555393957e+04
-6.262967652071503835e+04
-6.263372504317527637e+04
-6.266327172156579763e+04
-6.270037342299613374e+04
-6.270320349459452700e+04
-6.267256434481003089e+04
-6.266075244715077133e+04
-6.259530066687161889e+04
-6.258225737570365163e+04
-6.259303859011590976e+04
-6.263789654229512962e+04
-6.261850531530776061e+04
-6.261802668580424506e+04
-6.261763991086676106e+04
-6.261821459232889174e+04
-6.261601312177965156e+04
-6.259503009886740620e+04
-6.261198288340128056e+04
-6.260934675950550445e+04
-6.258951393514007941e+04
-6.260598971253413765e+04
-6.262163831032918824e+04
-6.261751656382052897e+04
-6.263417431219021819e+04
-6.262231012928601558e+04
-6.250454997542905039e+04
-6.254722688492836460e+04
-6.254617947362050472e+04
-6.255493145907574944e+04
-6.252791673609612917e+04
-6.251767209435334371e+04
-6.251401394581975183e+04
-6.254194606358506280e+04
-6.252397980916083907e+04
-6.258670710194034473e+04
-6.274189081922869082e+04
-6.257944866020516929e+04
-6.250865814496203529e+04
-6.247584911016812111e+04
-6.246270822096132179e+04
-6.243207958746909571e+04
-6.248829477154411870e+04
-6.252161977391164692e+04
-6.247066073566800333e+04
-6.244403034944712999e+04
-6.240168013770539255e+04
-6.252942010863057658e+04
-6.252904606011262513e+04
-6.259346943653333437e+04
-6.254328822607422626e+04
-6.236861123198668065e+04
-6.242549877265962277e+04
-6.242395462809081073e+04
-6.252883993625483708e+04
-6.261709174151606567e+04
-6.278523580787317769e+04
-6.251198741354792583e+04
-6.247038180215256580e+04
-6.234833248452578118e+04
-6.228425527867319761e+04
-6.228401320701145596e+04
-6.235692689095912647e+04
-6.237093053431070439e+04
-6.231510473685815668e+04
-6.228050838536212541e+04
-6.228496094056968286e+04
-6.227897600738707115e+04
-6.228107595287294680e+04
-6.228058579511463176e+04
-6.229211678631784162e+04
-6.218788726617965585e+04
-6.223257864696995966e+04
-6.220724607766114059e+04
-6.223588892046768888e+04
-6.223432608455682930e+04
-6.220802989335648454e+04
-6.221521682922457694e+04
-6.218189331684288481e+04
-6.219434108292538440e+04
-6.219514325755832397e+04
-6.221475541137088294e+04
-6.214709895316465554e+04
-6.213008157120922988e+04
-6.213067623115163587e+04
-6.212205074982449878e+04
-6.214285970775604073e+04
-6.211192898459426942e+04
-6.216316091310909542e+04
-6.208033806161255779e+04
-6.201558799805798481e+04
-6.202542266241708421e+04
-6.203277978511540277e+04
-6.201661641085147130e+04
-6.201466060898064461e+04
-6.203702388862445514e+04
-6.199259522344076686e+04
-6.198477761805378395e+04
-6.194301258791735745e+04
-6.201415154306589830e+04
-6.201576580081584689e+04
-6.197165659041097388e+04
-6.199728818913309078e+04
-6.192323238627483806e+04
-6.188459050058165303e+04
-6.187759405449910264e+04
-6.189096350988493214e+04
-6.185087181546822103e+04
-6.188701935838401550e+04
-6.183512194628430007e+04
-6.180326900448893866e+04
-6.180204992054608738e+04
-6.175931775145731081e+04
-6.182552146021846420e+04
-6.180669872385097551e+04
-6.179532365020910947e+04
-6.176423694602755859e+04
-6.173531862937432743e+04
-6.174641290688520530e+04
-6.172199715863366873e+04
-6.172682252858898573e+04
-6.170821693760711787e+04
-6.176341241151475697e+04
-6.160332001075232256e+04
-6.162878246791816491e+04
-6.160109944468006870e+04
-6.158912500102125341e+04
-6.157279919048585725e+04
-6.156268216348090209e+04
-6.160594965312465501e+04
-6.157346804395747313e+04
-6.157588683959198534e+04
-6.153129338297923823e+04
-6.150566539331654349e+04
-6.153356226145286928e+04
-6.153577292078622122e+04
-6.153151444642739807e+04
-6.149593645946688775e+04
-6.165149305530492711e+04
-6.143159261612407863e+04
-6.141819449416243879e+04
-6.140399844521158229e+04
-6.138785141089510580e+04
-6.134127913406420703e+04
-6.137633814936593262e+04
-6.140380724372738769e+04
-6.133844684010277706e+04
-6.134547589877634891e+04
-6.126434722313655220e+04
-6.132210875095645315e+04
-6.131623503430512210e+04
-6.130147654286145553e+04
-6.131462177818954660e+04
-6.124019909983886464e+04
-6.129799518222750339e+04
-6.117179493024553085e+04
-6.118505728838373034e+04
-6.118599384928233485e+04
-6.121367521104671323e+04
-6.114224799200489360e+04
-6.117977598360304546e+04
-6.120108453596535401e+04
-6.110246333195248735e+04
-6.113134077755303588e+04
-6.107852804854317947e+04
-6.109485485250988859e+04
-6.111114525953952398e+04
-6.111071489637642662e+04
-6.108919610405975982e+04
-6.108456108174049587e+04
-6.108757073193256656e+04
-6.093743296044694580e+04
-6.099717673327792727e+04
-6.097602699645605026e+04
-6.092953571288047533e+04
-6.094140153576969169e+04
-6.101358630708677083e+04
-6.096669608731625340e+04
-6.098085874346262426e+04
-6.106458614038330415e+04
-6.096216438149034366e+04
-6.093357866182825092e+04
-6.088507502643461339e+04
-6.087766882908254775e+04
-6.084105090966273565e+04
-6.083747885314335144e+04
-6.084422752564615803e+04
-6.086131828320692148e+04
-6.079247004785104946e+04
-6.075000101136427838e+04
-6.079156511414160195e+04
-6.076680073067654303e+04
-6.076743856838352076e+04
-6.074233383368519571e+04
-6.074406179597887240e+04
-6.074022006950707146e+04
-6.071780657624379819e+04
-6.068749848845851375e+04
-6.070641238596251060e+04
-6.070420953843548341e+04
-6.065787250430230051e+04
-6.065806592270325928e+04
-6.065812422513596539e+04
-6.068252025003345625e+04
-6.064345050382877525e+04
-6.062509933935009758e+04
-6.060809679622129624e+04
-6.056269634209835203e+04
-6.054938142189309292e+04
-6.055622566347612883e+04
-6.056200623247418116e+04
-6.054895013249451586e+04
-6.052975677374330553e+04
-6.052656913498725044e+04
-6.053382749688605691e+04
-6.052361260000663606e+04
-6.050854178052204952e+04
-6.055439488922007149e+04
-6.047627821042513824e+04
-6.044413655266702699e+04
-6.044738822240502486e+04
-6.045236997639309993e+04
-6.045215635121417290e+04
-6.046733457221416029e+04
-6.046998459134580480e+04
-6.044996073507447727e+04
-6.042765378470854193e+04
-6.038180508532969543e+04
-6.038989404168038163e+04
-6.041260897988559009e+04
-6.040768265231565601e+04
-6.038788829573455587e+04
-6.036512882619438460e+04
-6.039086589201582683e+04
-6.032615710183568444e+04
-6.030717016451313248e+04
-6.033778502052921976e+04
-6.030565873184290103e+04
-6.024099316576801357e+04
-6.031099124500199105e+04
-6.032532647326057486e+04
-6.030702512032727827e+04
-6.037308479291749245e+04
-6.042126757927478320e+04
-6.030996758201245393e+04
-6.028923009001443279e+04
-6.026658707819364645e+04
-6.022317465737233579e+04
-6.017908750302777480e+04
-6.025442886523385823e+04
-6.024998786565766932e+04
-6.023338081774984312e+04
-6.024754806355433539e+04
-6.021398573170327290e+04
-6.018033681911102030e+04
-6.017925354779495683e+04
-6.016848184748781205e+04
-6.014105034257392253e+04
-6.019760669982422405e+04
-6.020684342776212725e+04
-6.018121096692085848e+04
-6.017073635419001948e+04
-6.014733505799168779e+04
-6.015029134938721836e+04
-6.015556895594087109e+04
-6.018136590028017963e+04
-6.023968026775979524e+04
-6.023401099425506982e+04
-6.015339715235402400e+04
-6.009729308764855523e+04
-6.009986301227995864e+04
-6.005898982021805568e+04
-6.007316807707273983e+04
-6.009715520714617742e+04
-6.012512046933121746e+04
-6.006228798172358802e+04
-6.002529018225685286e+04
-6.003561570606772148e+04
-6.003030818309804454e+04
-6.004278300821479206e+04
-6.007154360110523703e+04
-6.005924293534406752e+04
-6.002290096469963464e+04
-6.003220849473850831e+04
-6.003667463770422182e+04
-6.003968456664969563e+04
-6.004458646400758880e+04
-6.004254026389362843e+04
-6.005006070599749364e+04
-5.995499866701845167e+04
-5.994309799106743594e+04
-5.998342638096760493e+04
-5.997133995464410691e+04
-5.994891736137709813e+04
-5.999251701272692299e+04
-5.997587097779077158e+04
-5.993872811122304120e+04
-5.994173222344795795e+04
-5.994975245737700607e+04
-6.000151131778313720e+04
-5.999963786711095599e+04
-5.995250766023196775e+04
-5.993904407230513607e+04
-5.991231323847448220e+04
-5.990005015297433420e+04
-5.993857926596686593e+04
-5.999972530063122394e+04
-6.001646537477039237e+04
-5.994460903042333666e+04
-5.993309268426273047e+04
-5.989410048951629142e+04
-5.990068940539303730e+04
-5.992093276538987993e+04
-6.006150519232617808e+04
-5.997290335287423659e+04
-5.996847997101252258e+04
-5.990668228986328177e+04
-5.983721893056918634e+04
-5.980380639135758975e+04
-5.985726117083794816e+04
-5.987549203690498689e+04
-5.987361056249168178e+04
-5.990592078134653275e+04
-5.986940989591617108e+04
-5.990058995410778152e+04
-5.987290503713156068e+04
-5.990146277273449232e+04
-5.988174574886764458e+04
-5.984470093599994289e+04
-5.988593970949689538e+04
-5.987603510023166746e+04
-5.987084218141245947e+04
-5.989021983000855835e+04
-5.992328300419140578e+04
-5.982769037552785448e+04
-5.986105380981130293e+04
-5.987665479379679164e+04
-5.987337074040465814e+04
-5.988581671694655233e+04
-5.990754024367062812e+04
-5.992232802041531977e+04
-5.988630561831790692e+04
-5.989189766343824158e+04
-5.989635927097707463e+04
-5.990905613355995592e+04
-5.991679607432671764e+04
-5.991677049428742612e+04
-5.989578846184189024e+04
-5.990879499079248490e+04
-5.993521033224039275e+04
-5.987703596293744340e+04
-5.991425416428057360e+04
-5.993378913037253369e+04
-5.989460951323292102e+04
-5.989796684141994047e+04
-5.992225113411969505e+04
-5.991496204721437971e+04
-5.990738145738883759e+04
-5.993706933413756633e+04
-5.990422729842231638e+04
-5.990652123594942532e+04
-5.990517764983564848e+04
-5.993428897344959114e+04
-5.992246752987017680e+04
-5.993576033331421058e+04
-5.998293109111701779e+04
-5.996442534216456988e+04
-5.991198875224235235e+04
-5.991486595972256328e+04
-5.993116750437580049e+04
-5.990019143222859566e+04
-5.989957900622041052e+04
-5.992673845118907775e+04
-5.993677343889654730e+04
-5.994630818066600477e+04
-5.992355259572280193e+04
-5.991969065972253156e+04
-5.992454972716677730e+04
-5.994203009468008531e+04
-5.992902284712457913e+04
-5.995480264415375132e+04
-5.997781074112661008e+04
-5.995706949984948005e+04
-5.991299162966795848e+04
-5.990515154691276985e+04
-5.988705443154706154e+04
-5.989004195671444177e+04
-5.990503330519657175e+04
-5.992304705991050287e+04
-5.987372642489138525e+04
-5.990702967016939510e+04
-5.993178622640857066e+04
-5.994665143832257309e+04
-5.994175013364724873e+04
-6.004951856951983063e+04
-6.002667925353176543e+04
-5.992699370146516594e+04
-5.988895988753275014e+04
-5.990313908689117670e+04
-5.986062603574342211e+04
-5.986510586460043851e+04
-5.991502108443689940e+04
-5.992441920207273506e+04
-5.991791472142499697e+04
-5.988697880744216673e+04
-5.987976698268100154e+04
-5.990495357877238712e+04
-5.992227801842478220e+04
-5.993577547911354486e+04
-5.997276396270419355e+04
-5.995888363421513350e+04
-5.994081494643819315e+04
-5.992951142731215077e+04
-5.988615622353105573e+04
-5.989753083647161839e+04
-5.993120495166525507e+04
-5.993586349451877322e+04
-5.992699686921549437e+04
-5.996796845007792581e+04
-5.993356016897899826e+04
-5.993224856784418080e+04
-5.993480079766271228e+04
-5.993847774963432312e+04
-5.997186945364312851e+04
-5.997125311424101528e+04
-5.999226430806803546e+04
-5.999642812991157552e+04
-6.000884247488084657e+04
-5.994907772276740434e+04
-5.995111396414087358e+04
-5.997015198826761480e+04
-5.997882418610006425e+04
-5.999927437891532463e+04
-6.001616730662977352e+04
-6.013479341880176071e+04
-6.002243863090960076e+04
-5.999031466104352876e+04
-6.003526151056784875e+04
-6.006602845579141285e+04
-6.000036235954719450e+04
-6.011047368683928653e+04
-6.017079765347923967e+04
-6.005554782908927882e+04
-6.007703620945545845e+04
-6.000764791214276192e+04
-6.000990494404295896e+04
-5.996983940587242978e+04
-6.000324720418242214e+04
-5.999467901100967720e+04
-6.003377039280585450e+04
-6.001483286439329822e+04
-6.002912129095847922e+04
-6.008078085933641705e+04
-5.999290018724567199e+04
-6.005343334293397493e+04
-6.004311286533226667e+04
-6.003995650810076040e+04
-6.004554033696469560e+04
-6.009365502229511912e+04
-6.004199454660199990e+04
-6.004788790618063649e+04
-6.005505314175793319e+04
-5.999525234732813260e+04
-6.004979576327950781e+04
-6.007963142323710781e+04
-6.008231816704293306e+04
-6.003246071398982167e+04
-6.001308602854893252e+04
-6.007382787380597438e+04
-6.007016123261999019e+04
-6.007148723668309685e+04
-6.016256744606458960e+04
-6.027563819976885861e+04
-6.009074663550096011e+04
-6.006607342503484688e+04
-6.008944711473085772e+04
-6.005296306754004036e+04
-6.001224464311795600e+04
-6.009603775144463725e+04
-6.012413127438428637e+04
-6.011924476692274766e+04
-6.009524036447897379e+04
-6.005589737151854933e+04
-6.013575504584613373e+04
-6.013855070333313051e+04
-6.012787913423639111e+04
-6.014923272820741840e+04
-6.016087656281320233e+04
-6.006321487160571269e+04
-6.007890597727398563e+04
-6.010121705085591384e+04
-6.010806997270079592e+04
-6.010442165992791706e+04
-6.013688711293461529e+04
-6.016055449073490308e+04
-6.013393827693113417e+04
-6.013108812624312850e+04
-6.014730020730453543e+04
-6.017382113681220653e+04
-6.013485242540970648e+04
-6.015135759234526631e+04
-6.014482976932977908e+04
-6.016129180439940683e+04
-6.016821752306528651e+04
-6.013599802954566258e+04
-6.014735344325381448e+04
-6.016970959552973363e+04
-6.018636467928138882e+04
-6.016997416392384912e+04
-6.019042075882179779e+04
-6.020244709952049016e+04
-6.019276198079792812e+04
-6.018114362944413733e+04
-6.018138510096372192e+04
-6.023198765187212121e+04
-6.024905158366998512e+04
-6.026329435419855145e+04
-6.021130249337597343e+04
-6.017222716355868761e+04
-6.025377427805933985e+04
-6.021472835744779877e+04
-6.021051197058607067e+04
-6.027100020760861662e+04
-6.035499664546977147e+04
-6.026097961600302369e+04
-6.029112176154526242e+04
-6.027324144459482341e+04
-6.025395156621160277e+04
-6.024927122900904214e+04
-6.024009201057186874e+04
-6.025756320352892362e+04
-6.028398800685803144e+04
-6.030687159770613653e+04
-6.027050431792451127e+04
-6.026313593128217326e+04
-6.023623717989073339e+04
-6.028083097971492680e+04
-6.027805523585095943e+04
-6.028458496152563748e+04
-6.031282638836395199e+04
-6.032425395805045991e+04
-6.027326914729933924e+04
-6.027606530221187131e+04
-6.031606912182560336e+04
-6.032847348754509585e+04
-6.033324711145810579e+04
-6.031764292303205730e+04
-6.031318131151575653e+04
-6.032960452942130360e+04
-6.033448989093830460e+04
-6.034542621307416266e+04
-6.035601211095851613e+04
-6.035200000752343476e+04
-6.028307791203453962e+04
-6.034073912803506391e+04
-6.038589161043878266e+04
-6.041566790396533179e+04
-6.038233952465931361e+04
-6.031663995926771895e+04
-6.034617951458658354e+04
-6.036547058849497262e+04
-6.041127695263596252e+04
-6.053629597924595873e+04
-6.075734428516092157e+04
-6.060017423774329654e+04
-6.045539419587887824e+04
-6.043908386661895929e+04
-6.036615433489930729e+04
-6.030059935250820126e+04
-6.038425751767769543e+04
-6.047291262162988278e+04
-6.045149451500013674e+04
-6.043057564803818241e+04
-6.038398227885697270e+04
-6.036958340526550455e+04
-6.043336085468380770e+04
-6.040511236585905135e+04
-6.042184077274318406e+04
-6.041707296482182574e+04
-6.046800711218742799e+04
-6.044722608759449213e+04
-6.042842725021662773e+04
-6.043691912998233602e+04
-6.040946931468268303e+04
-6.044840589526925760e+04
-6.042941768122322537e+04
-6.044241275076657621e+04
-6.044197266370226134e+04
-6.050403244660836936e+04
-6.044242082360936911e+04
-6.038405631828711921e+04
-6.045269600030091533e+04
-6.046097370316345769e+04
-6.044015579972833075e+04
-6.041304554271083180e+04
-6.040878513213964470e+04
-6.047975933040751988e+04
-6.047765185388766258e+04
-6.044200893081708637e+04
-6.045657345261559385e+04
-6.063303699313499237e+04
-6.053893428828130709e+04
-6.050263628682348644e+04
-6.059191670013669500e+04
-6.063794873318261671e+04
-6.052187466506768396e+04
-6.044203147443295893e+04
-6.045180907680038945e+04
-6.046292477013210009e+04
-6.046583567485932144e+04
-6.048312634091630025e+04
-6.051239300350931444e+04
-6.055830216052454489e+04
-6.051503972237229755e+04
-6.050700055584323127e+04
-6.049490616549798142e+04
-6.053026332955870748e+04
-6.059289814295309770e+04
-6.053797100757339649e+04
-6.051636688945574861e+04
-6.056139692801758792e+04
-6.063731192396704137e+04
-6.054527413681149483e+04
-6.057692163521480688e+04
-6.068526317571743130e+04
-6.055274642341818253e+04
-6.058585335371724068e+04
-6.057890287830942543e+04
-6.061457270458470157e+04
-6.052297366166572465e+04
-6.062441333271081385e+04
-6.059602636595323565e+04
-6.066714787879806681e+04
-6.068625334642870439e+04
-6.064688159240660025e+04
-6.086209615013230359e+04
-6.074310959019413713e+04
-6.073335278332372400e+04
-6.087136685935957212e+04
-6.093456187411499559e+04
-6.085785794533821900e+04
-6.088960346882814338e+04
-6.079666945614587166e+04
-6.070054467488087539e+04
-6.097207427335478133e+04
-6.088965900161999889e+04
-6.106754717193936813e+04
-6.115684438103495631e+04
-6.116649394526944525e+04
-6.115151027366525523e+04
-6.113803950780231389e+04
-6.138961598024704290e+04
-6.214992822997765325e+04
-6.227770343876365223e+04
-6.203100616101933701e+04
-6.229561581864584878e+04
-6.219950381706095504e+04
-6.163064067764956417e+04
-6.196996934709737252e+04
-6.256045366835122695e+04
-6.289184165588685573e+04
-6.295740360565414449e+04
-6.277843421218788717e+04
-6.240478389279719704e+04
-6.215779426831661840e+04
-6.205481150238994451e+04
-6.207684536519567337e+04
-6.244705934937627171e+04
-6.292939324971159658e+04
-6.299345801795009902e+04
-6.272274745105708280e+04
-6.292164626890824729e+04
-6.331929739387105656e+04
-6.347269621581119281e+04
-6.361893985060056002e+04
-6.386832576346957649e+04
-6.381065756194410642e+04
-6.373557690501770412e+04
-6.325310547454125481e+04
-6.317578710794399376e+04
-6.350787462599354330e+04
-6.368543618214331946e+04
-6.345458029537097173e+04
-6.353202531049484969e+04
-6.405981198879166914e+04
-6.403821491908704047e+04
-6.387284106113293819e+04
-6.372977679424305097e+04
-6.424177489266768680e+04
-6.403566200487677270e+04
-6.365526836757432466e+04
-6.346221249249024549e+04
-6.362498823136331339e+04
-6.349659952534781769e+04
-6.312089931308159430e+04
-6.322203524823468615e+04
-6.383973958572642005e+04
-6.409003878274550516e+04
-6.359777148236722132e+04
-6.345113677570953587e+04
-6.363519724024317838e+04
-6.354314342409421806e+04
-6.366742382658615679e+04
-6.395631286788214493e+04
-6.402904554764334171e+04
-6.379382338690513279e+04
-6.337363286896363570e+04
-6.321766973639670323e+04
-6.313873732658894733e+04
-6.338764379267326876e+04
-6.364513847352375888e+04
-6.351842084472745773e+04
-6.310782132061257289e+04
-6.361109368762659869e+04
-6.401654662033254135e+04
-6.407979519944993081e+04
-6.415956166085680889e+04
-6.366455385214909620e+04
-6.362072679797077581e+04
-6.418958388210232806e+04
-6.360944785153298290e+04
-6.348722780945364502e+04
-6.468002295388276252e+04
-6.376683207477723772e+04
-6.260272155688310158e+04
-6.323057385913952021e+04
-6.445791202703118324e+04
-6.433595459460349230e+04
-6.442462855497320561e+04
-6.368534477055910247e+04
-6.411121517287895404e+04
-6.317815931823830761e+04
-6.290333518540521618e+04
-6.364633283726335503e+04
-6.340079786383912869e+04
-6.176392384715346998e+04
-6.232580137192329857e+04
-6.240844486654768116e+04
-6.227439460203586350e+04
-6.438027478940217406e+04
-6.485858046052962163e+04
-6.228503594683123811e+04
-6.110645538184234465e+04
-6.081051550307111029e+04
-6.053488251500127808e+04
-6.106908417215944064e+04
-6.300048466776707937e+04
-6.398451197780547955e+04
-6.368057177110013436e+04
-6.242848141937086621e+04
-6.268798514828902989e+04
-6.317073562987966579e+04
-6.283915613982819923e+04
-6.270219480372476391e+04
-6.277585547037638753e+04
-6.227382795013649593e+04
-6.212044243179754994e+04
-6.244349448054612003e+04
-6.296628930820045207e+04
-6.329014439850917552e+04
-6.305788766114568716e+04
-6.242157641360473644e+04
-6.274659665234132262e+04
-6.310896535009647050e+04
-6.308626713731997734e+04
-6.319470152474336646e+04
-6.331844813345105649e+04
-6.303929664928933198e+04
-6.264783009695701912e+04
-6.283596160982154834e+04
-6.324530653716121014e+04
-6.338095632646133163e+04
-6.286931973085263598e+04
-6.247956685306409781e+04
-6.256709084564154909e+04
-6.242210513205023744e+04
-6.243897633361602493e+04
-6.280130994886609551e+04
-6.306882093119147612e+04
-6.291094105205171218e+04
-6.286931272783526947e+04
-6.282028943767782039e+04
-6.287406590824251180e+04
-6.306633114453584858e+04
-6.292822658471299656e+04
-6.288244763219409651e+04
-6.290736477542106877e+04
-6.283122671292272571e+04
-6.276478138986877457e+04
-6.292131110539552901e+04
-6.283545161419595388e+04
-6.280374378116297885e+04
-6.282809030539076775e+04
-6.279104630207768787e+04
-6.264978494911561575e+04
-6.276044110955716314e+04
-6.274210381988078007e+04
-6.278518130173065583e+04
-6.266694551636650431e+04
-6.273206453123446408e+04
-6.258950482785852364e+04
-6.271992845308773394e+04
-6.274858054398934473e+04
-6.267140785733502707e+04
-6.269198423907946562e+04
-6.295211750722025317e+04
-6.271193408391015691e+04
-6.247184308051945118e+04
-6.269692018352173181e+04
-6.264129766373919847e+04
-6.241331816891935887e+04
-6.257121232616856287e+04
-6.264755320037138154e+04
-6.247434743649727170e+04
-6.248741878269972949e+04
-6.248907695164452161e+04
-6.236627893675203086e+04
-6.244712825694964704e+04
-6.259443962503449438e+04
-6.255457332518218027e+04
-6.256518116241937969e+04
-6.262250940883894509e+04
-6.252871123806137621e+04
-6.230222699649039714e+04
-6.239521858148745378e+04
-6.254521131665541907e+04
-6.253063713111182733e+04
-6.256094823255218944e+04
-6.274793789470451884e+04
-6.266981194147608039e+04
-6.247861593497845024e+04
-6.248301977879137849e+04
-6.254504807800864364e+04
-6.253390910578273179e+04
-6.254511007928688923e+04
-6.256255447986962827e+04
-6.259340556370100239e+04
-6.255985522394924919e+04
-6.252141450529237045e+04
-6.254222989633500401e+04
-6.264890643989583623e+04
-6.264983034018561011e+04
-6.263642241532421031e+04
-6.259345140825771523e+04
-6.259472860352069983e+04
-6.261438698836985714e+04
-6.261357037268352724e+04
-6.260114100067664549e+04
-6.263891569769816124e+04
-6.266532508942851564e+04
-6.260681090534539544e+04
-6.258916648117685691e+04
-6.261323129401777987e+04
-6.265811745107033494e+04
-6.266218273913551820e+04
-6.267543046545198013e+04
-6.268679263125811121e+04
-6.270631092868047563e+04
-6.270769508118910016e+04
-6.269426052032320877e+04
-6.269106494562721491e+04
-6.268986416560122598e+04
-6.266798656591351028e+04
-6.262346885241067503e+04
-6.261570051319450431e+04
-6.261975257890026842e+04
-6.261272345415736345e+04
-6.259536871023545245e+04
-6.258844662906610029e+04
-6.256368784563951340e+04
-6.253831553129561507e+04
-6.254424888336932781e+04
-6.253632658233564871e+04
-6.252899089884514979e+04
-6.254249694270760665e+04
-6.253435897466660390e+04
-6.249107481542383175e+04
-6.246554314311134658e+04
-6.246518127548562916e+04
-6.243661952601251687e+04
-6.243892147849446337e+04
-6.244187678439592128e+04
-6.245660950110340491e+04
-6.244369365631225082e+04
-6.245826373976631294e+04
-6.246901471040718752e+04
-6.246884859108005185e+04
-6.248935682276838634e+04
-6.246248766308195627e+04
-6.245060328127898538e+04
-6.242738896081846178e+04
-6.242817611882682104e+04
-6.238561647476803046e+04
-6.237705727137883514e+04
-6.237523286227032804e+04
-6.236170340501517785e+04
-6.233783994394903857e+04
-6.229724650435415970e+04
-6.231437596923208912e+04
-6.229483730979812390e+04
-6.227625940684614761e+04
-6.225060184586502874e+04
-6.219727322126595391e+04
-6.223747868294692307e+04
-6.222209185822213476e+04
-6.221561404034295992e+04
-6.221546240400616080e+04
-6.233682254714502051e+04
-6.220663679718007916e+04
-6.218275112579657434e+04
-6.217974170554804004e+04
-6.216061781627426535e+04
-6.210194176104859071e+04
-6.213248185135232052e+04
-6.213509734519572521e+04
-6.212625302088074386e+04
-6.214799469119861897e+04
-6.209079311125245295e+04
-6.208810084712595562e+04
-6.210553825122024864e+04
-6.210005537863085192e+04
-6.207010314112807828e+04
-6.206749445050115173e+04
-6.209172429662217473e+04
-6.207368110361139406e+04
-6.207437688155227079e+04
-6.206957903448259458e+04
-6.209806967585290840e+04
-6.206841822281923669e+04
-6.205031768702706177e+04
-6.203812386110144871e+04
-6.204154467220046354e+04
-6.205729010363153793e+04
-6.202019698522934050e+04
-6.201932952486032445e+04
-6.201633320542582078e+04
-6.200444646392990398e+04
-6.196555853077137726e+04
-6.199122005849180277e+04
-6.199832438045762683e+04
-6.198838537676905253e+04
-6.194880375485256081e+04
-6.187728720677761157e+04
-6.196821371203137096e+04
-6.198422468153886439e+04
-6.199211468637949292e+04
-6.206767061816077330e+04
-6.218133646733548812e+04
-6.200487427747386391e+04
-6.195303421714795695e+04
-6.195264830957920640e+04
-6.189614239418996294e+04
-6.180559070035108743e+04
-6.190887958473344770e+04
-6.192947519703254511e+04
-6.192171132366964594e+04
-6.192266891299030249e+04
-6.199319944870092149e+04
-6.189895509122144722e+04
-6.189460803867001232e+04
-6.188276258764035447e+04
-6.187588234168267809e+04
-6.181580166638968512e+04
-6.187883947848380922e+04
-6.188590715412504505e+04
-6.187624956740066409e+04
-6.187342247109182790e+04
-6.185355151188881428e+04
-6.187103376479279541e+04
-6.184943598443963128e+04
-6.185883855987328570e+04
-6.185533094198046456e+04
-6.186799157374260540e+04
-6.184019680319166946e+04
-6.184106912202467356e+04
-6.184472188735692907e+04
-6.183326869875544799e+04
-6.185722887462239305e+04
-6.183674411987871281e+04
-6.183792770142388326e+04
-6.183397294419747777e+04
-6.183816005612739536e+04
-6.182641517169127474e+04
-6.181744608902886830e+04
-6.182647700648930186e+04
-6.181365140086193423e+04
-6.182575512390006770e+04
-6.180150069878689828e+04
-6.180915596863938845e+04
-6.180630562812594144e+04
-6.180585358961627935e+04
-6.180998325819709135e+04
-6.178361441698615090e+04
-6.179280103575185058e+04
-6.177883421855287452e+04
-6.179590198956806853e+04
-6.179222573081655719e+04
-6.182255458432395972e+04
-6.182005818997888855e+04
-6.180830255982269591e+04
-6.180109126850451139e+04
-6.175786185530845978e+04
-6.178443035123477603e+04
-6.177500220043287845e+04
-6.180409805157365190e+04
-6.179167306420442765e+04
-6.175246219364637363e+04
-6.178922576821860275e+04
-6.179837173978209466e+04
-6.180445420952053246e+04
-6.182000026434429310e+04
-6.195939149174336490e+04
-6.183156236899595388e+04
-6.181074503261050268e+04
-6.179850729048674111e+04
-6.179137616828404134e+04
-6.174938071820453479e+04
-6.177703913131027366e+04
-6.179636044629001117e+04
-6.178361506457746873e+04
-6.178783276345148624e+04
-6.173502672374310350e+04
-6.176707441640272009e+04
-6.176787193885992747e+04
-6.176374335197803157e+04
-6.176740664046140591e+04
-6.174504983869436546e+04
-6.175497844239250117e+04
-6.173266723656954855e+04
-6.173193591513331194e+04
-6.171981404213114729e+04
-6.172986919366895017e+04
-6.172147876879371324e+04
-6.169493742108501465e+04
-6.170959705974485405e+04
-6.169358406709375413e+04
-6.173577250422142242e+04
-6.171353644920376246e+04
-6.172890505328816653e+04
-6.172026935676139692e+04
-6.170632695034143399e+04
-6.170734677649910009e+04
-6.168768883422055660e+04
-6.170966881246004777e+04
-6.169354062756931671e+04
-6.171025831608912267e+04
-6.169610028165646509e+04
-6.169355964155856054e+04
-6.168883608633235417e+04
-6.168771729152941407e+04
-6.172494892092332884e+04
-6.167978268930552440e+04
-6.170043345150891400e+04
-6.168121325540157704e+04
-6.169939978395781509e+04
-6.169516379641859385e+04
-6.166896385538774484e+04
-6.168120464451152657e+04
-6.166416171918389591e+04
-6.168201622465111723e+04
-6.166690764010015118e+04
-6.171108919212132605e+04
-6.169427984866384941e+04
-6.170209896324624424e+04
-6.167937564927607309e+04
-6.163930076429000474e+04
-6.170379027438719640e+04
-6.169199130192103621e+04
-6.171973741751109628e+04
-6.166353012974393641e+04
-6.160334437684193108e+04
-6.169208538535819389e+04
-6.170504942990741984e+04
-6.171285517799505033e+04
-6.181567623072354763e+04
-6.201704158498362813e+04
-6.173445469839475845e+04
-6.172838030711911415e+04
-6.170276773443795537e+04
-6.166513617875445198e+04
-6.159196799658155942e+04
-6.168159288106907479e+04
-6.167986082430498209e+04
-6.165879878319034469e+04
-6.164794640712419641e+04
-6.158404781619055575e+04
-6.164762686394261254e+04
-6.164422236141950270e+04
-6.163984194816605304e+04
-6.163648774967433565e+04
-6.162809316992692038e+04
-6.164354169342842943e+04
-6.162794029535327718e+04
-6.164358164387456054e+04
-6.163002124506298424e+04
-6.164047546031924867e+04
-6.162332049917702534e+04
-6.161890932107482513e+04
-6.162440975834735582e+04
-6.162113746736437315e+04
-6.165878071205587185e+04
-6.161677286880584143e+04
-6.162202803384046274e+04
-6.161365412686060154e+04
-6.162088832830572937e+04
-6.162667163809896010e+04
-6.161757430013542034e+04
-6.161724273494324007e+04
-6.160305803061208280e+04
-6.162011607975605875e+04
-6.159502709898781904e+04
-6.161364136514332495e+04
-6.162225772545595828e+04
-6.162127542127321794e+04
-6.162732608557369531e+04
-6.161933371500936482e+04
-6.163670788673394418e+04
-6.162581362380551582e+04
-6.163993358832372178e+04
-6.163117700886336388e+04
-6.162663977362436708e+04
-6.163146860262707924e+04
-6.163071182813400083e+04
-6.163538442353236314e+04
-6.163110500956574833e+04
-6.163970885415885277e+04
-6.162083330115579884e+04
-6.161179944639360474e+04
-6.160385379860376997e+04
-6.158624130880909797e+04
-6.161923548285875586e+04
-6.161505642082009581e+04
-6.161793208830962249e+04
-6.158196945838929969e+04
-6.156289661313829129e+04
-6.160127457036718260e+04
-6.160024441917298100e+04
-6.160625255811693205e+04
-6.164747189454820182e+04
-6.172117321041592368e+04
-6.158585484249566071e+04
-6.158274556744596339e+04
-6.157211705096522201e+04
-6.155146370690077310e+04
-6.151452401817505597e+04
-6.155192625154720008e+04
-6.155231223340099677e+04
-6.153455374424543697e+04
-6.152506369406353770e+04
-6.149278698344797886e+04
-6.151891386769971723e+04
-6.151402978498278389e+04
-6.150921507979133457e+04
-6.149940926662820857e+04
-6.148883086315148103e+04
-6.149924309099517268e+04
-6.147574936589512072e+04
-6.146728917947594164e+04
-6.145564559867017670e+04
-6.146153615857052500e+04
-6.144396996243877220e+04
-6.143477844219964027e+04
-6.143443248467860394e+04
-6.142030889982676308e+04
-6.143017138842181885e+04
-6.140126808145293762e+04
-6.140493925747083267e+04
-6.138444852792945312e+04
-6.138303575057917624e+04
-6.138495347240825504e+04
-6.136692682528476871e+04
-6.136693820729750587e+04
-6.135188971842620231e+04
-6.135905195784181706e+04
-6.133123552206817112e+04
-6.133621128084098018e+04
-6.132584669473335089e+04
-6.132343133096512611e+04
-6.131914165045684058e+04
-6.128083094046305632e+04
-6.129434005110070575e+04
-6.126704645197140781e+04
-6.128825288457643182e+04
-6.125320285294027417e+04
-6.124125000459090370e+04
-6.123596579939926596e+04
-6.122531346189285978e+04
-6.121608901541677187e+04
-6.119343234079941612e+04
-6.122545292470575805e+04
-6.119455087208486657e+04
-6.119965087325328204e+04
-6.114722792320037115e+04
-6.113319784980772965e+04
-6.117480221835734847e+04
-6.115653332364818198e+04
-6.116917938387896720e+04
-6.107416015707721090e+04
-6.107332025776578666e+04
-6.111360881979634723e+04
-6.112297956746971613e+04
-6.110322414626883983e+04
-6.126466664189388393e+04
-6.137400050281311997e+04
-6.108759943223150185e+04
-6.108700996080078039e+04
-6.105172583572568692e+04
-6.100186989845114294e+04
-6.092213145031509339e+04
-6.102415281548069470e+04
-6.101749135701560590e+04
-6.099593765643259394e+04
-6.096402842151775258e+04
-6.084816825798612990e+04
-6.096306375303132518e+04
-6.094233350695812987e+04
-6.095976654170133406e+04
-6.090661000069800502e+04
-6.080292546164935629e+04
-6.089146423359218170e+04
-6.088960762776363845e+04
-6.090374990969776263e+04
-6.090415346829101327e+04
-6.119322960377850541e+04
-6.092177773668494046e+04
-6.085472779457198340e+04
-6.082510315299789363e+04
-6.081365068449535465e+04
-6.072376455282410461e+04
-6.074183207452261559e+04
-6.079186941369879787e+04
-6.074728088856325485e+04
-6.075539642865257338e+04
-6.066738258053261234e+04
-6.070558231569724740e+04
-6.070244046715444711e+04
-6.067853236511159776e+04
-6.067939145734433987e+04
-6.061288650815568690e+04
-6.064598678336905868e+04
-6.061229485333427874e+04
-6.063539306788505201e+04
-6.059942844994369079e+04
-6.062212346522964799e+04
-6.060973153639348311e+04
-6.057601546157844859e+04
-6.057805982761360792e+04
-6.054592769270724966e+04
-6.057684718729303131e+04
-6.053976820410940127e+04
-6.052399049183712486e+04
-6.050564543775539642e+04
-6.049750060282460618e+04
-6.050508444578349736e+04
-6.047882180473802873e+04
-6.049490759868622990e+04
-6.046205380828388297e+04
-6.047146876881684148e+04
-6.043310179383542709e+04
-6.041499313939938293e+04
-6.043030191484656098e+04
-6.041722616200730408e+04
-6.041381360491841770e+04
-6.035178316750167141e+04
-6.032996224017116765e+04
-6.035869597756784788e+04
-6.036887235545708245e+04
-6.035134926677853946e+04
-6.040172649498625105e+04
-6.047274225567152462e+04
-6.033285575431509642e+04
-6.031823123618478712e+04
-6.029567700361390598e+04
-6.027003559093098738e+04
-6.022370729875225516e+04
-6.025748854682768433e+04
-6.025578100340724632e+04
-6.023471093276658212e+04
-6.022143918558573205e+04
-6.018905825748185453e+04
-6.022329589218851470e+04
-6.019935997053783649e+04
-6.018842493333038146e+04
-6.018109514405330265e+04
-6.016929176997125614e+04
-6.015934937255815748e+04
-6.014093178991503373e+04
-6.014112299827401876e+04
-6.012082550252274814e+04
-6.011414928253820108e+04
-6.009582951324526221e+04
-6.009520082777878270e+04
-6.010696984155914106e+04
-6.008980092103487550e+04
-6.009297758035044535e+04
-6.005961136976253329e+04
-6.006084407343782368e+04
-6.004753353478154168e+04
-6.003461761921668949e+04
-6.003513827046697406e+04
-6.003145645481855900e+04
-6.002633098173708277e+04
-5.999951938263980264e+04
-6.000115928050672665e+04
-5.998353635988125461e+04
-5.999218347523335979e+04
-5.997377761318349076e+04
-5.994049513518251479e+04
-5.996074420538753475e+04
-5.994981622727860668e+04
-5.996240706987058365e+04
-5.993699081392645894e+04
-5.989562735994542891e+04
-5.991820478518377058e+04
-5.992819853339545807e+04
-5.991129397251143382e+04
-5.992636671046098490e+04
-6.004797396831642254e+04
-5.993027045948926389e+04
-5.989943675628649362e+04
-5.987462041139464418e+04
-5.987978349426224304e+04
-5.982497824819052039e+04
-5.985180906719974155e+04
-5.985153387474898773e+04
-5.982071255251295952e+04
-5.982647151724911964e+04
-5.979307300818351359e+04
-5.981837668265534739e+04
-5.983664014651783509e+04
-5.989160176987825980e+04
-5.983823429315220710e+04
-5.980015183741653891e+04
-5.980098917093364435e+04
-5.977249714818060602e+04
-5.975312609571347275e+04
-5.975766189140820643e+04
-5.977559436292652390e+04
-5.975378192610863334e+04
-5.974675564089701948e+04
-5.972895489052708581e+04
-5.972438136834796751e+04
-5.972594381624682137e+04
-5.969892159494342195e+04
-5.969525660120430985e+04
-5.967411661830569210e+04
-5.967923582452033588e+04
-5.967912234530198475e+04
-5.967984763986294274e+04
-5.967608302302972879e+04
-5.967419570249038225e+04
-5.967539826206679572e+04
-5.966179788641785854e+04
-5.966524926615460572e+04
-5.965967574466713995e+04
-5.966980530829930649e+04
-5.966051684860626119e+04
-5.964880332597914821e+04
-5.964208847864479321e+04
-5.963440403099007381e+04
-5.965086106398192351e+04
-5.964088443515633116e+04
-5.964092677557044954e+04
-5.963269833831825963e+04
-5.963909235609594180e+04
-5.962702456946550956e+04
-5.961557402268131409e+04
-5.961936925763580075e+04
-5.962103060358866060e+04
-5.962157544237614638e+04
-5.959480761686641927e+04
-5.960487486808565154e+04
-5.959157599476194446e+04
-5.958699383741222118e+04
-5.959068347689198708e+04
-5.958008582777323318e+04
-5.957900190769806795e+04
-5.956961723620988050e+04
-5.956854610473399953e+04
-5.955672671688856644e+04
-5.957049805296638806e+04
-5.956611938178991113e+04
-5.956366622414867015e+04
-5.955143699323119654e+04
-5.952179252747671126e+04
-5.954737677642720519e+04
-5.953637319483762985e+04
-5.954277836872456101e+04
-5.952297913294821046e+04
-5.949388916872254049e+04
-5.952894864885818970e+04
-5.952790637457143748e+04
-5.952034399574631243e+04
-5.954951162192205084e+04
-5.965428184253798099e+04
-5.953389320110275003e+04
-5.953175588824511942e+04
-5.952510052093520790e+04
-5.950781503521303966e+04
-5.946214442402407440e+04
-5.950152703011091216e+04
-5.950788217658371286e+04
-5.950115474641441688e+04
-5.949510120631658356e+04
-5.947158107607941201e+04
-5.949331321161928645e+04
-5.948844744991530752e+04
-5.949089736067248305e+04
-5.949134788944981119e+04
-5.947813362781902106e+04
-5.948704726142859727e+04
-5.947852092258657649e+04
-5.947438528289470560e+04
-5.946639616751472204e+04
-5.947348078116527176e+04
-5.946404184125988832e+04
-5.945955768823406106e+04
-5.944819100836979487e+04
-5.944369474259266281e+04
-5.945251237291777943e+04
-5.944493104628250876e+04
-5.944670550432945311e+04
-5.944763508052063844e+04
-5.944642704114584194e+04
-5.943617183489947638e+04
-5.943707952095984365e+04
-5.943587347311872145e+04
-5.943943060277964105e+04
-5.943458340942773066e+04
-5.943315596471137542e+04
-5.942914757473939244e+04
-5.942441795651779830e+04
-5.941737290901268716e+04
-5.941729181274151779e+04
-5.943162495203510480e+04
-5.941664167688216548e+04
-5.941902833223417110e+04
-5.941372886912903778e+04
-5.941528400844189309e+04
-5.942685831222564593e+04
-5.941448043033217255e+04
-5.941642583703832497e+04
-5.941075359266596206e+04
-5.941785779109539726e+04
-5.940325678572860488e+04
-5.941915516080955422e+04
-5.942002507078145572e+04
-5.942253245665357099e+04
-5.941540279605950491e+04
-5.937964796028495766e+04
-5.943113929260339501e+04
-5.942499829683636926e+04
-5.943577850940538337e+04
-5.939482399602498481e+04
-5.934927253387216479e+04
-5.942018832452356583e+04
-5.943203568712482956e+04
-5.944347193477147812e+04
-5.950921607800287893e+04
-5.967168695422842575e+04
-5.945923890215080610e+04
-5.944892916984575277e+04
-5.942931150653657824e+04
-5.940085609536857373e+04
-5.934315634314170893e+04
-5.941855089068750385e+04
-5.943350620468877605e+04
-5.941992125053422205e+04
-5.941218597295544168e+04
-5.937170765408407169e+04
-5.942210913616415201e+04
-5.941214361305753118e+04
-5.941432687833874661e+04
-5.942554555676094606e+04
-5.940957634485139715e+04
-5.942521198675061169e+04
-5.941857695093884831e+04
-5.943478839695227362e+04
-5.942588304614713707e+04
-5.944466320045931207e+04
-5.942838831730646780e+04
-5.942927993341811816e+04
-5.943775321714990423e+04
-5.943264570335941971e+04
-5.945639620567063685e+04
-5.943585747062605515e+04
-5.945894798067031661e+04
-5.943711318580891384e+04
-5.944980425492909126e+04
-5.945723441206958523e+04
-5.946564101145367749e+04
-5.946466256353824429e+04
-5.946479538640091778e+04
-5.947471662829857814e+04
-5.946469686887402349e+04
-5.947293426276687387e+04
-5.946058867540914071e+04
-5.947788402544836572e+04
-5.947014047442419542e+04
-5.946945285157358740e+04
-5.947754274655706831e+04
-5.947978730955853098e+04
-5.949571769757359289e+04
-5.947445966211581253e+04
-5.947219638296445919e+04
-5.947291209579960559e+04
-5.949548493419768783e+04
-5.948855611310500535e+04
-5.949728219245155196e+04
-5.950961931462334178e+04
-5.951042914586966072e+04
-5.950988713634102169e+04
-5.948513812140857772e+04
-5.952519305881593027e+04
-5.953290196762807318e+04
-5.954983010375734739e+04
-5.952731004509358900e+04
-5.949045803251527104e+04
-5.954516720984472340e+04
-5.955356166115168162e+04
-5.956212229196675617e+04
-5.960356553020013234e+04
-5.972627665705241816e+04
-5.958395411773276282e+04
-5.957332833032548660e+04
-5.957484655729885708e+04
-5.956003921546747006e+04
-5.952695271237496490e+04
-5.959265006774153881e+04
-5.960546264406525006e+04
-5.959258305237374589e+04
-5.960704704984585260e+04
-5.957554531647356634e+04
-5.959879203468441119e+04
-5.960597081679544499e+04
-5.961396667181472003e+04
-5.962044207462121267e+04
-5.961601050687521638e+04
-5.961386044430845504e+04
-5.961425165999210003e+04
-5.962665198740335472e+04
-5.962109349954382924e+04
-5.961737470031297562e+04
-5.962083034746060730e+04
-5.961020946712663135e+04
-5.962779827771337295e+04
-5.961546704204293201e+04
-5.964586529157066252e+04
-5.964843972909130389e+04
-5.965977763992939435e+04
-5.964960806256451906e+04
-5.964817810784291942e+04
-5.966292803006642498e+04
-5.965119168291734968e+04
-5.966820270407039061e+04
-5.966710982126204908e+04
-5.968459794371359749e+04
-5.968440505513162498e+04
-5.968873032632781542e+04
-5.969091522955749679e+04
-5.969296670301249833e+04
-5.973196448041046096e+04
-5.970976975912207854e+04
-5.970594664225530141e+04
-5.970383696513000177e+04
-5.971384048661846464e+04
-5.972652708128384984e+04
-5.971705289283797902e+04
-5.973111494785428658e+04
-5.972037993668032868e+04
-5.974174410790441470e+04
-5.972630042131765367e+04
-5.973483742847400572e+04
-5.974461807996178686e+04
-5.975255736472429271e+04
-5.976149469101812429e+04
-5.970851961643937830e+04
-5.976056227026151464e+04
-5.977475559499218798e+04
-5.980344112247334124e+04
-5.978930389183153602e+04
-5.971662366374960402e+04
-5.976051961209243018e+04
-5.979974371259047621e+04
-5.983978387193664094e+04
-5.986796781660643319e+04
-6.012379192192097253e+04
-6.001401410263472644e+04
-5.990927643115831597e+04
-5.984565468596641585e+04
-5.981924263698279537e+04
-5.975555309798092640e+04
-5.977973561849127145e+04
-5.983686896577596781e+04
-5.985543470173709647e+04
-5.986249357118621265e+04
-5.979349525058772997e+04
-5.981185564624662220e+04
-5.983948834602323768e+04
-5.983975348370741995e+04
-5.986070343379292171e+04
-5.982623046703219734e+04
-5.985219573710852274e+04
-5.984508186397448299e+04
-5.985712943373381859e+04
-5.987549752537604218e+04
-5.988407208102525328e+04
-5.988891623233601422e+04
-5.986930964770281571e+04
-5.987998649330107583e+04
-5.987748326620638545e+04
-5.991821901175289531e+04
-5.990321740211237920e+04
-5.989293347700588492e+04
-5.990814157620308833e+04
-5.990866733200695307e+04
-5.995338118575811677e+04
-5.994875794879073510e+04
-5.999233200950293394e+04
-5.994353619027955574e+04
-5.986402675147450645e+04
-5.993701191462892893e+04
-5.992459255295465846e+04
-5.993343758772355795e+04
-6.001875397664841876e+04
-6.013712916188293457e+04
-5.998182678110148117e+04
-6.001944036005452654e+04
-5.998559147929867322e+04
-5.991947073940392147e+04
-5.992464686367478134e+04
-5.994734605727392773e+04
-5.995482961297452130e+04
-5.995323736608061881e+04
-5.997533931574811140e+04
-5.994602860911185417e+04
-5.998250488483302615e+04
-5.997680132536149176e+04
-5.999935379450384789e+04
-6.001277960483753122e+04
-5.999312203680164384e+04
-6.002203340043142089e+04
-5.999208654156065313e+04
-6.001191811891623365e+04
-6.001581581813004595e+04
-6.002105540478313924e+04
-6.002167119931655179e+04
-6.003661743816811941e+04
-6.002640313174223411e+04
-6.001825423160674836e+04
-6.005108716047131747e+04
-6.004337993620597263e+04
-6.006121058985806303e+04
-6.004642030748257093e+04
-6.005732713027097634e+04
-6.006226125568384305e+04
-6.006093669336073071e+04
-6.008344170341338759e+04
-6.006770745261306729e+04
-6.007027271017100429e+04
-6.007258420718758134e+04
-6.008680653905702638e+04
-6.008066591602572589e+04
-6.010207056471093529e+04
-6.011601450139996450e+04
-6.011417223576927790e+04
-6.010916715376891079e+04
-6.008087902208550804e+04
-6.012431327587008855e+04
-6.012525714902037726e+04
-6.013158020018257230e+04
-6.010303089742882730e+04
-6.009025530055694981e+04
-6.014463836491350230e+04
-6.014096319626570767e+04
-6.014785238774556638e+04
-6.022668484511888528e+04
-6.030148799753024650e+04
-6.015929882321999321e+04
-6.016618214315101795e+04
-6.017490948435125756e+04
-6.014759507312050846e+04
-6.014180033562450262e+04
-6.017240410575311398e+04
-6.017051549750942650e+04
-6.016534429048182210e+04
-6.016627956697961054e+04
-6.012582813936984167e+04
-6.017226355130629963e+04
-6.018571352490752906e+04
-6.019316686626402225e+04
-6.019310356886744557e+04
-6.017882404671616678e+04
-6.019795044967182184e+04
-6.019996828223542252e+04
-6.020861370343949966e+04
-6.019736733863036352e+04
-6.021977496867515583e+04
-6.021205439832661068e+04
-6.020478614740218472e+04
-6.020178130521559797e+04
-6.020598757019139885e+04
-6.022928713329995662e+04
-6.020501911817312794e+04
-6.021014251752945711e+04
-6.019800087704299949e+04
-6.020403989612369332e+04
-6.022922441584547050e+04
-6.022027562545239198e+04
-6.021925332005019300e+04
-6.023541494356164185e+04
-6.026375203047610557e+04
-6.022404726415749610e+04
-6.020420342376068584e+04
-6.018247781772914459e+04
-6.020321763277605351e+04
-6.020889510957341554e+04
-6.018109592803614214e+04
-6.024031438399772742e+04
-6.029022424241164845e+04
-6.026583415818287176e+04
-6.020932045357593597e+04
-6.017386710374546965e+04
-6.022200821024984907e+04
-6.021167605999679654e+04
-6.021626433244731743e+04
-6.024468067086289375e+04
-6.037043208920044708e+04
-6.023874979994597379e+04
-6.020481014856789989e+04
-6.020249024979506066e+04
-6.020512061581708986e+04
-6.016708833015347045e+04
-6.019152565462466009e+04
-6.020417207477533520e+04
-6.020334729839438660e+04
-6.020891404448314279e+04
-6.016236094752581266e+04
-6.019158729806077463e+04
-6.018891752900762367e+04
-6.019548858858853782e+04
-6.018881454901368124e+04
-6.017436093370406888e+04
-6.018447308705549949e+04
-6.017549782408317697e+04
-6.016935075284156483e+04
-6.015696459012418927e+04
-6.016495383572827996e+04
-6.015129018381673086e+04
-6.015341764362993854e+04
-6.015215380859296420e+04
-6.014907609540199337e+04
-6.016367200594040332e+04
-6.014108196110897552e+04
-6.014645074550152640e+04
-6.013654337257192674e+04
-6.013324214552951889e+04
-6.013083830789277999e+04
-6.012414788800935639e+04
-6.011561121352977352e+04
-6.009756266885743389e+04
-6.010212687260787789e+04
-6.008435795836082980e+04
-6.009347088406642433e+04
-6.009334478232656693e+04
-6.009480891044287273e+04
-6.008230707454564981e+04
-6.007479381211434520e+04
-6.006421071782839863e+04
-6.003286881632601580e+04
-6.005761770747337141e+04
-6.006317934567992779e+04
-6.006184857094743347e+04
-6.001749015743714699e+04
-5.999986739658457373e+04
-6.004157005194423982e+04
-6.003226913101208629e+04
-6.002438369655301358e+04
-6.008547474410700670e+04
-6.014085224148296402e+04
-6.001469372629795544e+04
-6.000561796200398385e+04
-5.999760273684678396e+04
-5.996697191318735713e+04
-5.994353088450880750e+04
-5.997341500114956580e+04
-5.996815687976204208e+04
-5.995951186504044745e+04
-5.994740820450643514e+04
-5.991287031410106283e+04
-5.993851240984990000e+04
-5.992734977074195194e+04
-5.992786931214343349e+04
-5.990664500955992116e+04
-5.989608766754441604e+04
-5.989755886198394001e+04
-5.988764522768127790e+04
-5.987873130868861335e+04
-5.985232094078142109e+04
-5.986337738569954672e+04
-5.984715056396635191e+04
-5.984397623934313742e+04
-5.982844982548031840e+04
-5.984209267094218376e+04
-5.983448895539467048e+04
-5.979554054676755186e+04
-5.981021413765750913e+04
-5.978415761233111698e+04
-5.979784517362993938e+04
-5.978262221258594218e+04
-5.979764379473034933e+04
-5.977714401409729908e+04
-5.976425915379418439e+04
-5.975014063646346040e+04
-5.973146313981703861e+04
-5.974903881293719314e+04
-5.972462656385965965e+04
-5.974278822924175620e+04
-5.971578341765729419e+04
-5.971714243538000301e+04
-5.969838642350865121e+04
-5.968024000301575870e+04
-5.970644269512288156e+04
-5.968178158746522240e+04
-5.969618361914407433e+04
-5.964723007331514236e+04
-5.965817243863403564e+04
-5.964412385680117586e+04
-5.964187226985949383e+04
-5.964428441389719228e+04
-5.962959281096755149e+04
-5.964252548076893436e+04
-5.959119415210924490e+04
-5.961529576713996357e+04
-5.957029974217218114e+04
-5.961057750332852447e+04
-5.962806830567291036e+04
-5.954153286522949202e+04
-5.955248332935377402e+04
-5.950887017937206110e+04
-5.959636824635812081e+04
-5.961024105734623299e+04
-5.979249420583431493e+04
-5.970671232171360316e+04
-5.975488872824976715e+04
-5.973182393005560152e+04
-5.958615143063512369e+04
-5.943300040519443428e+04
-5.961628351503799058e+04
-5.975370801614670927e+04
-5.957588662990355078e+04
-5.969304894062646781e+04
-5.985247018039492832e+04
-5.961481267736700102e+04
-5.943591656953354686e+04
-5.950400023213901295e+04
-5.949333083245556190e+04
-5.936590202384311124e+04
-5.942588313363437192e+04
-5.940485700687566714e+04
-5.943304869283817970e+04
-5.940612252745738806e+04
-5.936407748309206363e+04
-5.939176656741920306e+04
-5.938588728417121456e+04
-5.939064814343660692e+04
-5.935878309915266436e+04
-5.937134506823020638e+04
-5.935988623964162252e+04
-5.937274809031293262e+04
-5.935932629473641282e+04
-5.933290908570589818e+04
-5.933018691955071699e+04
-5.929369866187228035e+04
-5.933323845473453548e+04
-5.928766400444792816e+04
-5.930658401345174207e+04
-5.929058946360123082e+04
-5.926503037209205650e+04
-5.928313621241681540e+04
-5.928476832289570302e+04
-5.929664218016411905e+04
-5.934614021347760718e+04
-5.938638138451866689e+04
-5.927757356412463560e+04
-5.927540354873331671e+04
-5.927173018699092790e+04
-5.924090582242025994e+04
-5.922378024000284495e+04
-5.923948794619010005e+04
-5.925752636235860700e+04
-5.924285065681152628e+04
-5.922255335945357365e+04
-5.920960409822427755e+04
-5.923439400319583365e+04
-5.922761155688891449e+04
-5.921999871062642342e+04
-5.921471445371010486e+04
-5.920280661442922428e+04
-5.921196795365300932e+04
-5.920856773183213227e+04
-5.919529026887851069e+04
-5.918922431117296219e+04
-5.918985051053947245e+04
-5.918211110266166361e+04
-5.916602239824464050e+04
-5.918179720606854971e+04
-5.918147382383821969e+04
-5.918301979718694201e+04
-5.916084491211432032e+04
-5.915747878039458737e+04
-5.915795085434220528e+04
-5.915936824521001108e+04
-5.915629921094905148e+04
-5.915209349448236753e+04
-5.915949389714946301e+04
-5.915105590845758707e+04
-5.914807950600369077e+04
-5.914054616048480966e+04
-5.914532170737007982e+04
-5.915978921490539506e+04
-5.915282584483708342e+04
-5.914951139203707862e+04
-5.914600832441756211e+04
-5.914060506445027568e+04
-5.913756237172084366e+04
-5.913322839962042781e+04
-5.913329999100291025e+04
-5.912359436369554896e+04
-5.913148995504540653e+04
-5.910586489123330102e+04
-5.912482583021199389e+04
-5.912240935152039310e+04
-5.912460801258494030e+04
-5.912821966206355864e+04
-5.910376118968764786e+04
-5.908906601035302447e+04
-5.909074312805267982e+04
-5.910201474460931786e+04
-5.908268337530256395e+04
-5.910193035794399475e+04
-5.909872893232955539e+04
-5.908162962479925045e+04
-5.908272787519003759e+04
-5.907053162065464130e+04
-5.910882893922342919e+04
-5.910507838740309671e+04
-5.909262548263709323e+04
-5.905903423736642435e+04
-5.906197897303273203e+04
-5.908396089722764009e+04
-5.907989813232029701e+04
-5.908030493025870965e+04
-5.905871434786116879e+04
-5.907741183906982042e+04
-5.905306562047338957e+04
-5.905933363033924979e+04
-5.908100016550980217e+04
-5.909714320230211160e+04
-5.910350151115675544e+04
-5.903183140831996570e+04
-5.905198736018683121e+04
-5.906489533107063471e+04
-5.911928522100691043e+04
-5.911101602026430191e+04
-5.901404335710913438e+04
-5.902155353768407076e+04
-5.906931683230571798e+04
-5.912813567711319774e+04
-5.912480450466233015e+04
-5.943865864572750434e+04
-5.941788923297185102e+04
-5.928111165013120626e+04
-5.912078766443547647e+04
-5.910772975690670137e+04
-5.900374887255091744e+04
-5.899727621785452357e+04
-5.906399579169469507e+04
-5.909854225674610643e+04
-5.911537122110038035e+04
-5.903887953760178061e+04
-5.904298088474061660e+04
-5.906239910902633710e+04
-5.908534185488728690e+04
-5.909419833674233087e+04
-5.907527132984530908e+04
-5.909028486722058005e+04
-5.908505852304927976e+04
-5.910298248949593108e+04
-5.908454982269562606e+04
-5.910070284324826207e+04
-5.910000152265494398e+04
-5.908126502699137200e+04
-5.909348119377564581e+04
-5.909380688033580373e+04
-5.911443460483642411e+04
-5.909636215684992203e+04
-5.910796544358335814e+04
-5.909075214888477058e+04
-5.908796463864493126e+04
-5.910366839670664922e+04
-5.910544505201654829e+04
-5.911073292772101559e+04
-5.909305139846706152e+04
-5.910196976034848194e+04
-5.912181527460252983e+04
-5.915424940903439710e+04
-5.913085668270025781e+04
-5.911143964470116043e+04
-5.912521255159883731e+04
-5.912760912459837709e+04
-5.913549755820340943e+04
-5.913889471996623615e+04
-5.915777895052933309e+04
-5.914940332600350666e+04
-5.914597424931962451e+04
-5.913239588888164872e+04
-5.914552707726188237e+04
-5.917326079819702136e+04
-5.916373102768481476e+04
-5.914612013144086086e+04
-5.912373662097623310e+04
-5.914614878282935388e+04
-5.916460518183543900e+04
-5.916978183703799004e+04
-5.913378960112051573e+04
-5.911825857426039875e+04
-5.915125943179934984e+04
-5.914737244391808053e+04
-5.915855914604531426e+04
-5.913503266953239654e+04
-5.916181574457715033e+04
-5.912796564382158249e+04
-5.909996669302765076e+04
-5.912111177999138454e+04
-5.916963962213446212e+04
-5.922181695825811039e+04
-5.915624036021652137e+04
-5.909733136990435742e+04
-5.908033687190461933e+04
-5.923746936620715132e+04
-5.930418886171549821e+04
-5.929390657093048503e+04
-5.923413087394645117e+04
-5.923844030585968721e+04
-5.931963414464439120e+04
-5.924071063001864968e+04
-5.929256874864375277e+04
-5.959225855503838829e+04
-5.954974010767039726e+04
-5.916432153260093764e+04
-5.901540998167503130e+04
-5.916884204476366722e+04
-5.913269926782277616e+04
-5.913723878716628678e+04
-5.917254337297738675e+04
-5.930952612486238650e+04
-5.922184883407199231e+04
-5.898381991722480598e+04
-5.913144086537613475e+04
-5.930600153548342496e+04
-5.935709707382235501e+04
-5.932571461553558765e+04
-5.927527718533568986e+04
-5.923528992124346405e+04
-5.924987327671403909e+04
-5.919255411949129484e+04
-5.901021238612200978e+04
-5.910922908050063415e+04
-5.874570785877142771e+04
-5.867791788806046679e+04
-5.857926918726950680e+04
-5.860289164694827195e+04
-5.873368236102790252e+04
-5.902623504085525929e+04
-5.906163063046179741e+04
-5.919413515248266049e+04
-5.934074330690420902e+04
-5.929300462008453178e+04
-5.931730667801074014e+04
-5.940702976054957253e+04
-5.939928483747736027e+04
-5.944422652009385638e+04
-5.929202098339368240e+04
-5.941161709346919815e+04
-5.931957906869633734e+04
-5.940817308111887542e+04
-5.956147325842302962e+04
-5.979095373452188505e+04
-5.987093352676348877e+04
-5.984527346215326543e+04
-5.980930882631763961e+04
-6.002427810993295134e+04
-6.022828444725375448e+04
-5.992991790164227132e+04
-6.012645876865636819e+04
-6.045306121055756375e+04
-5.996910119072142697e+04
-5.976496623900120903e+04
-5.996003784912594710e+04
-6.005941024182312685e+04
-5.980980106536840321e+04
-5.983123184102232335e+04
-5.995662495280658914e+04
-6.010519215373193583e+04
-6.023865406261081807e+04
-5.996233685037061514e+04
-6.014303036383965809e+04
-6.007270205911056109e+04
-6.023006951441619458e+04
-5.996809663741032273e+04
-6.025279114926782495e+04
-6.048048309822750889e+04
-6.016530306860733981e+04
-5.969532490563727333e+04
-5.955182036315789446e+04
-5.985560725087697938e+04
-5.988424883688172122e+04
-6.038897752269431658e+04
-6.077322608868137468e+04
-6.058795104921257735e+04
-6.050054043074667425e+04
-6.028907595033736288e+04
-6.011988384414117900e+04
-5.960965931787932641e+04
-6.038131169032611069e+04
-6.019003859235377604e+04
-6.008483313565715071e+04
-6.043081147770246025e+04
-6.063761886119694827e+04
-6.073633045581346232e+04
-6.077198077738998836e+04
-6.011935188913821185e+04
-5.970677543920895550e+04
-6.054055287166023481e+04
-6.011410265746207006e+04
-6.002452615286154469e+04
-6.221546642509002413e+04
-6.196001711122545385e+04
-6.142017292651465687e+04
-6.085086540179957956e+04
-6.050054526948720013e+04
-5.904323557015509869e+04
-5.986961970434447721e+04
-5.996755731465505960e+04
-6.038787477866738482e+04
-6.156400668356088136e+04
-6.118808680361382721e+04
-6.059043015404542530e+04
-5.982929584558089118e+04
-6.051319110021162487e+04
-6.022708494380609773e+04
-6.026967670108008315e+04
-6.032092576383004780e+04
-6.044451460997041431e+04
-6.004769832173846953e+04
-5.910257091708157532e+04
-5.961250287923038559e+04
-5.955627512648481934e+04
-6.026848452701312635e+04
-5.944813344892272289e+04
-5.932997213701553846e+04
-5.941769243543477933e+04
-5.924241903717054083e+04
-5.884121445258172753e+04
-5.936239263976879010e+04
-6.002214978834971407e+04
-5.964340770400679321e+04
-5.975418708005730150e+04
-5.986882897647035134e+04
-5.983485848657187307e+04
-5.975516156018717447e+04
-5.944283396221239673e+04
-5.951642855322116520e+04
-5.924334501238258235e+04
-5.918104160588409286e+04
-5.908226973278691730e+04
-5.929605620500727673e+04
-5.930895138510418474e+04
-5.916501881015468098e+04
-5.938182335100398632e+04
-5.944133628283390135e+04
-5.962767258195522300e+04
-5.935426509059268574e+04
-5.949272554130876961e+04
-5.935037408670142759e+04
-5.912926656501861726e+04
-5.917427135097697465e+04
-5.937321678142027667e+04
-5.953338489980116719e+04
-5.946770701356890640e+04
-5.956462510017657041e+04
-5.937912404817555944e+04
-5.940480718271360092e+04
-5.943336716197849455e+04
-5.939386578588034172e+04
-5.941839868184082297e+04
-5.934252133033481368e+04
-5.936981472179054981e+04
-5.934542725353868445e+04
-5.938759487120690028e+04
-5.950354664721868903e+04
-5.966674911612999858e+04
-5.943988492669480183e+04
-5.929856804971625388e+04
-5.944909334188837238e+04
-5.944052272954512591e+04
-5.944026254404811334e+04
-5.952724504322766734e+04
-5.958217107536923868e+04
-5.966551833476674801e+04
-5.954412325889925705e+04
-5.956261741012682614e+04
-5.979821380754308484e+04
-5.979683819610113278e+04
-5.949544580945686175e+04
-5.950633814586955850e+04
-5.939770650888944510e+04
-5.936103050397676998e+04
-5.944568870392799727e+04
-5.952201535898799193e+04
-5.948016275009131641e+04
-5.962538959913127474e+04
-5.952183987788670493e+04
-5.946278814176244487e+04
-5.956641898441090598e+04
-5.982697600853124459e+04
-5.972451407523806847e+04
-5.956411952002438920e+04
-5.959819810450238583e+04
-5.964736062792833400e+04
-5.953663099245347257e+04
-5.955710692608410318e+04
-5.963455533075024141e+04
-5.963677128979416739e+04
-5.963447094929262676e+04
-5.957891726736104465e+04
-5.958860156376745726e+04
-5.974375236561275960e+04
-5.972739995555529458e+04
-5.957477046930457436e+04
-5.954352777595773659e+04
-5.964867363470926648e+04
-5.968472830014346255e+04
-5.967524124708517047e+04
-5.974871755450173077e+04
-5.978899088041744835e+04
-5.970548451275338448e+04
-5.963519151667701954e+04
-5.965009499507529836e+04
-5.971308569149533287e+04
-5.975542737129401939e+04
-5.967163040417697630e+04
-5.959134803877486411e+04
-5.962807335760552087e+04
-5.961880618724468513e+04
-5.962192657062259968e+04
-5.971786889980650449e+04
-5.972212645527871791e+04
-5.966271416461660556e+04
-5.962527978055251879e+04
-5.963203972724286723e+04
-5.965480387892961153e+04
-5.966330038524081465e+04
-5.970429954894552066e+04
-5.970425957547359576e+04
-5.964000189867991867e+04
-5.959103199402062455e+04
-5.964487664849098655e+04
-5.962072277349215437e+04
-5.963656488359621289e+04
-5.965825249035388697e+04
-5.966794289387184836e+04
-5.967407295026157226e+04
-5.965433749276931485e+04
-5.965090316190547310e+04
-5.967473450966604287e+04
-5.967596575861955353e+04
-5.965787463252744783e+04
-5.967292246401013836e+04
-5.966691143977615866e+04
-5.966060070905123575e+04
-5.965075005951249477e+04
-5.963864938469471235e+04
-5.967135993442004838e+04
-5.966495071670980542e+04
-5.966515483384743129e+04
-5.966389817706521717e+04
-5.962853479463871190e+04
-5.964634422827963863e+04
-5.966593858172532055e+04
-5.966103987696443073e+04
-5.967059812023097038e+04
-5.965605566499589622e+04
-5.956609724115689460e+04
-5.961256041626688238e+04
-5.961754786363137100e+04
-5.960174632744373230e+04
-5.966530709998270322e+04
-5.967094960465293843e+04
-5.957255537712468504e+04
-5.955145970917966770e+04
-5.956945306155241997e+04
-5.955687319760766695e+04
-5.958966139527548512e+04
-5.959440998164099437e+04
-5.959105312760425295e+04
-5.957299068528044154e+04
-5.955869076040680375e+04
-5.957161854683537968e+04
-5.960662585692672292e+04
-5.961809333056592004e+04
-5.960633837491886516e+04
-5.955932199664023938e+04
-5.954646252609423391e+04
-5.955721071743614448e+04
-5.957494280561674532e+04
-5.957653161856039515e+04
-5.961061155472008977e+04
-5.957642994189669116e+04
-5.955327886383404984e+04
-5.954994737575973704e+04
-5.956594914849465567e+04
-5.957583748243139416e+04
-5.959115224735658558e+04
-5.961808617191237136e+04
-5.961209682273169165e+04
-5.961027424005286593e+04
-5.960601651223954832e+04
-5.962785069166764879e+04
-5.962935667847852164e+04
-5.961954018048362195e+04
-5.963147824550334190e+04
-5.963409703251233441e+04
-5.965619741427630652e+04
-5.964516810432864440e+04
-5.964041655179702502e+04
-5.963953085997595917e+04
-5.963711846989499463e+04
-5.963403883957063954e+04
-5.963603259065131715e+04
-5.965686276486855058e+04
-5.965399873419758660e+04
-5.966486081707828998e+04
-5.962710197917994083e+04
-5.963626810941070289e+04
-5.968200113049226638e+04
-5.968252928640857863e+04
-5.968535166617912910e+04
-5.962023671036343876e+04
-5.962218696291137167e+04
-5.968216894385951309e+04
-5.968803129761459422e+04
-5.968247094123833085e+04
-5.984949454421052360e+04
-5.987201304418747168e+04
-5.968422954605666746e+04
-5.968633539706168813e+04
-5.967775255671452760e+04
-5.961556871299022896e+04
-5.960105246883036307e+04
-5.966924672198497865e+04
-5.967182371361149853e+04
-5.967255583554002806e+04
-5.964620576329448522e+04
-5.963827426707990526e+04
-5.968848600812019868e+04
-5.967912489596557134e+04
-5.968141982758191443e+04
-5.967407552093165577e+04
-5.967175336007137230e+04
-5.966829231827643525e+04
-5.966776062810059375e+04
-5.967663134624571830e+04
-5.967489962131033826e+04
-5.968089618191282352e+04
-5.968276054836822004e+04
-5.968284055213167449e+04
-5.967204339309413626e+04
-5.967770601681482367e+04
-5.968565177416594088e+04
-5.966012980124095338e+04
-5.966468295028073771e+04
-5.965746147627848404e+04
-5.967281892623348540e+04
-5.967268465395410021e+04
-5.967337270363404241e+04
-5.967151681366512639e+04
-5.967303336315306660e+04
-5.967743997869978921e+04
-5.967664054072660656e+04
-5.968305225683659955e+04
-5.968886906153008022e+04
-5.970056520685358555e+04
-5.969347682908369461e+04
-5.968545892105398525e+04
-5.970231367031708214e+04
-5.970008098168193101e+04
-5.969674000061707920e+04
-5.969462443585846631e+04
-5.971231726428608090e+04
-5.971200410651558195e+04
-5.971316633453546092e+04
-5.971574522723504197e+04
-5.970862990352397901e+04
-5.971680252210501203e+04
-5.971545967987084441e+04
-5.971886383793592540e+04
-5.972032755249959155e+04
-5.972825450088531943e+04
-5.972449309644493769e+04
-5.972456466022864333e+04
-5.973584972293744795e+04
-5.973092553793468687e+04
-5.973226322132958740e+04
-5.972445678297664563e+04
-5.973098113973130239e+04
-5.973423812348123465e+04
-5.973520574082426901e+04
-5.975030564845804474e+04
-5.975703229275248304e+04
-5.976337642290283111e+04
-5.974570601053280552e+04
-5.975414256759238924e+04
-5.975872839410942106e+04
-5.976913766805084015e+04
-5.978388066325036925e+04
-5.978600240404514625e+04
-5.978767700559818331e+04
-5.978076781102004315e+04
-5.979354675899238646e+04
-5.978398088948476652e+04
-5.979190548353684426e+04
-5.979217466786165460e+04
-5.978115139949847799e+04
-5.978267130047471437e+04
-5.978109793273754622e+04
-5.981612096068990650e+04
-5.981920781299930968e+04
-5.979680178489723039e+04
-5.977929749054912099e+04
-5.978284614986567613e+04
-5.982262782498329761e+04
-5.984222479474257125e+04
-5.993383743086861068e+04
-5.996217894965472806e+04
-5.998948951330575801e+04
-5.987169120218692115e+04
-5.984773695064084313e+04
-5.981482697036322497e+04
-5.980665080236246285e+04
-5.980048106087489577e+04
-5.983614606191857456e+04
-5.985325741787771403e+04
-5.981630313813442626e+04
-5.981760430881600769e+04
-5.981361383810066036e+04
-5.985220546127176203e+04
-5.983638005145559873e+04
-5.983375565578094393e+04
-5.983934650229318504e+04
-5.982885122192464041e+04
-5.984550769695061899e+04
-5.983418281221927464e+04
-5.984477045846856345e+04
-5.983167948016384616e+04
-5.984727284424654499e+04
-5.983596583794197795e+04
-5.982571147217789257e+04
-5.985052347531891428e+04
-5.985453939990908111e+04
-5.985055882291761372e+04
-5.981519166893226793e+04
-5.985222923283125419e+04
-5.986157428678462020e+04
-5.987161145038097311e+04
-5.984136939089151565e+04
-5.980114305149141728e+04
-5.987002978124962829e+04
-5.986303954273365525e+04
-5.987401300456678291e+04
-5.995755441696299386e+04
-6.006602541800509789e+04
-5.995314951243463292e+04
-5.988660284962755395e+04
-5.988588400973555690e+04
-5.984609665758774645e+04
-5.983420319612624007e+04
-5.985290906031776103e+04
-5.989243941842967615e+04
-5.989499498487929668e+04
-5.988004962712931592e+04
-5.984751438168143795e+04
-5.984584929024637677e+04
-5.989092753933650965e+04
-5.987276783083051851e+04
-5.988073899154197716e+04
-5.985421627232317405e+04
-5.983817655050871690e+04
-5.987165950709664321e+04
-5.987622987242727686e+04
-5.989654996355507319e+04
-5.991487335172245366e+04
-6.000420446281818295e+04
-5.988176748198140558e+04
-5.988217508088297473e+04
-5.987621819520641293e+04
-5.988112608301737782e+04
-5.984178641569605679e+04
-5.986192392063404986e+04
-5.988171908477468241e+04
-5.985122804259624536e+04
-5.986304764954299026e+04
-5.982729685415173299e+04
-5.986216290215101617e+04
-5.985914368846934667e+04
-5.986423734047837934e+04
-5.987288674296806857e+04
-5.985678441293052310e+04
-5.986934004826573801e+04
-5.985317271239557886e+04
-5.988067639263136516e+04
-5.986404200232232688e+04
-5.987187396387426998e+04
-5.987123594477340521e+04
-5.986099448616077279e+04
-5.987256915235441556e+04
-5.985391147426217503e+04
-5.987986860595686449e+04
-5.985962077866507752e+04
-5.987629493365997041e+04
-5.988008823926309560e+04
-5.986897561514394329e+04
-5.988045371135597088e+04
-5.987111055177247908e+04
-5.988521196030302963e+04
-5.987065584206405765e+04
-5.989659544136389741e+04
-5.988965324150788365e+04
-5.989909310742237722e+04
-5.990660031392908422e+04
-5.987123009179673682e+04
-5.990717691935326729e+04
-5.989629045911453431e+04
-5.990768980045886565e+04
-5.987598633359526866e+04
-5.986008900737199292e+04
-5.991550986565128551e+04
-5.990757370974516380e+04
-5.991566930017985578e+04
-5.995687028076562274e+04
-6.008270391162082524e+04
-5.992611925999762752e+04
-5.992586744711302890e+04
-5.991895268995993683e+04
-5.989162080511139357e+04
-5.984976708439572394e+04
-5.989195602176806278e+04
-5.990349755018362339e+04
-5.988838951760809869e+04
-5.989883765652249713e+04
-5.986113885195875628e+04
-5.989862457850425562e+04
-5.990043627103939798e+04
-5.989944808001301863e+04
-5.989798229595179873e+04
-5.988493366591679660e+04
-5.990093176530820347e+04
-5.989275493258069764e+04
-5.990021547658062627e+04
-5.988847505019460368e+04
-5.989780788235890941e+04
-5.989800111122160888e+04
-5.990446406347156153e+04
-5.990778271461959230e+04
-5.992231323359557427e+04
-5.994346844639389019e+04
-5.992293880431462458e+04
-5.990079076549372985e+04
-5.989764493795362068e+04
-5.989409459779904137e+04
-5.990422128929605969e+04
-5.989484630260057747e+04
-5.990764736490367795e+04
-5.990766956542906701e+04
-5.991407577913903515e+04
-5.991112950602833007e+04
-5.990492762265268539e+04
-5.990932766816227377e+04
-5.990116151843547414e+04
-5.991502268194426870e+04
-5.990950366478859360e+04
-5.990587032662187266e+04
-5.989460770870734268e+04
-5.990048538275554165e+04
-5.989428653559128725e+04
-5.989435040852337261e+04
-5.990693395791593503e+04
-5.990890862246497272e+04
-5.990883608172684762e+04
-5.988520238380342926e+04
-5.987399057959121274e+04
-5.991231753417179425e+04
-5.992293869532410463e+04
-5.991605456176638108e+04
-5.986677326869529497e+04
-5.985546644486437435e+04
-5.990995456129530794e+04
-5.993821191261526110e+04
-5.996603827540508064e+04
-6.010791781340642046e+04
-6.017426378787984868e+04
-6.000705396036555612e+04
-5.994356560995365726e+04
-5.992143244779315137e+04
-5.986656048557472968e+04
-5.984425070474910899e+04
-5.991041085131886939e+04
-5.992812098026167223e+04
-5.992176532984853839e+04
-5.990010075653182139e+04
-5.988982959641005436e+04
-5.993296375778283982e+04
-5.994512333465299889e+04
-5.994728257898316224e+04
-5.993650882170235855e+04
-5.991940102465279779e+04
-5.990909804554584116e+04
-5.991528355576862668e+04
-5.992093471507709910e+04
-5.992582060721280141e+04
-5.992777209498843877e+04
-5.991726668468920252e+04
-5.991022245273683075e+04
-5.991722865488113894e+04
-5.992262362606218085e+04
-5.992741637722298037e+04
-5.991546067601303366e+04
-5.991242550749723887e+04
-5.990423942346342665e+04
-5.990888943674247275e+04
-5.991877580691126059e+04
-5.992128439309156965e+04
-5.990301559748223372e+04
-5.988539454741152440e+04
-5.990354847457659343e+04
-5.992111870940666267e+04
-5.992777201303256152e+04
-5.991313153414547560e+04
-5.988560099294890824e+04
-5.989423370607787365e+04
-5.993485339777838817e+04
-5.994735238326871331e+04
-6.001663090180283325e+04
-6.010851645716047642e+04
-6.006748822803235089e+04
-5.996252913502629963e+04
-5.995646741054156155e+04
-5.992282798144633853e+04
-5.988969625599298161e+04
-5.990564574420581630e+04
-5.994402450323955418e+04
-5.994102659071574453e+04
-5.992565427145767171e+04
-5.990251841117241565e+04
-5.991629598857623932e+04
-5.994900329034453171e+04
-5.994846542028409749e+04
-5.995786173951670935e+04
-5.994568678101339174e+04
-5.993514304355214699e+04
-5.993263215898622730e+04
-5.992560853765899810e+04
-5.991171017784390278e+04
-5.991410678430341068e+04
-5.992159447386244574e+04
-5.991532865507664246e+04
-5.992438615876813128e+04
-5.992973616308580677e+04
-5.994241074007606221e+04
-5.992923937817574188e+04
-5.990645242672982567e+04
-5.990727455994653428e+04
-5.990310260361555993e+04
-5.990398125739434909e+04
-5.991113142708715168e+04
-5.991790415620779095e+04
-5.990996589248117380e+04
-5.991130205049197684e+04
-5.991339372139074112e+04
-5.990761645424108428e+04
-5.991760029847832629e+04
-5.990992045768941898e+04
-5.991271489961317275e+04
-5.990108600822924927e+04
-5.989558144221685507e+04
-5.990448498836542421e+04
-5.991116887940189190e+04
-5.990910393870954431e+04
-5.989281155790823686e+04
-5.990413886091986933e+04
-5.989810516300151357e+04
-5.990501316285549547e+04
-5.989571431350379862e+04
-5.989822239792141772e+04
-5.991347294562432944e+04
-5.990105075400546775e+04
-5.989276236822565988e+04
-5.988798923283352633e+04
-5.990380231397108582e+04
-5.988749980922595569e+04
-5.988905969032083522e+04
-5.989504142485178454e+04
-5.989531639684387483e+04
-5.990486884210855351e+04
-5.989240878057719965e+04
-5.990819796047356795e+04
-5.989443214687553700e+04
-5.990097197893126577e+04
-5.989872938030465593e+04
-5.989033674684371363e+04
-5.988142996016498364e+04
-5.988654413008003030e+04
-5.988975341362514882e+04
-5.985606973171933350e+04
-5.986126765868628718e+04
-5.987969460167659417e+04
-5.991272695038763777e+04
-5.991892635594822059e+04
-5.990563665180965472e+04
-5.995074154975463171e+04
-5.992536567053166073e+04
-5.987437562898587930e+04
-5.982719288815251639e+04
-5.983620646474214300e+04
-5.985231574843174167e+04
-5.985646587684335827e+04
-5.987770786045078421e+04
-5.990449287638984242e+04
-5.997201112057556747e+04
-5.987337586437849677e+04
-5.987610921943721769e+04
-5.987441539689452475e+04
-5.987835935839939339e+04
-5.983481671777599695e+04
-5.985921340810876427e+04
-5.986973983971420239e+04
-5.985573213324123935e+04
-5.986172014356194268e+04
-5.983317309349514107e+04
-5.985704987788172002e+04
-5.985458216571537923e+04
-5.986308045570677496e+04
-5.985552482393167884e+04
-5.984773250025163725e+04
-5.986962107278879557e+04
-5.985657958361239434e+04
-5.986532518471744697e+04
-5.984509961881303025e+04
-5.985587056721157569e+04
-5.984335231629526970e+04
-5.983588702360049501e+04
-5.985912116135188990e+04
-5.983785614627631730e+04
-5.985183353738242295e+04
-5.983034400051141711e+04
-5.984275590257057775e+04
-5.981866857950095437e+04
-5.983765793079386640e+04
-5.983793992372211505e+04
-5.983069133492225228e+04
-5.984988094894494861e+04
-5.980766557178482617e+04
-5.983608106458176917e+04
-5.982520046306859876e+04
-5.983965150607919350e+04
-5.983945685532203061e+04
-5.979355454528147675e+04
-5.982745023166434839e+04
-5.985455939668598876e+04
-5.986653457808746316e+04
-5.983280372553103371e+04
-5.999811232920093607e+04
-5.989601898411344882e+04
-5.982149647776883648e+04
-5.982487820133729838e+04
-5.982637821732786688e+04
-5.976992478465825116e+04
-5.978668767962237325e+04
-5.982877141051904619e+04
-5.980140630134566163e+04
-5.981239743623696268e+04
-5.976688002387747110e+04
-5.978743525485277496e+04
-5.980299329925746861e+04
-5.979763090814938914e+04
-5.982204895570064400e+04
-5.980288373492543178e+04
-5.980053636308466230e+04
-5.977724639354151441e+04
-5.977996199978653749e+04
-5.976054217634177621e+04
-5.978143073489582457e+04
-5.980173736457756604e+04
-5.978390910407105548e+04
-5.980747741023443086e+04
-5.978683371365626226e+04
-5.978256489798167604e+04
-5.975385744890880596e+04
-5.976545805141282472e+04
-5.975393747328130848e+04
-5.975814138335543976e+04
-5.977994703108799149e+04
-5.976208981001732900e+04
-5.976270191963516845e+04
-5.974671781083893438e+04
-5.976008909835787927e+04
-5.975091883409699221e+04
-5.975490277808267274e+04
-5.974957189478653891e+04
-5.974553930865661096e+04
-5.974957496110264037e+04
-5.974014990256336023e+04
-5.974699647378691589e+04
-5.973753371697031253e+04
-5.974531471838009020e+04
-5.973628749506860913e+04
-5.972981709601795592e+04
-5.973891025840218936e+04
-5.974229872369530494e+04
-5.974760320816230524e+04
-5.973230158639987349e+04
-5.974413726911172125e+04
-5.972976965393797582e+04
-5.974015751266028383e+04
-5.973852535284943588e+04
-5.974201673689859308e+04
-5.972906554763670283e+04
-5.972044046545131278e+04
-5.971595113556685828e+04
-5.970676185668336984e+04
-5.972739750879527855e+04
-5.972581052884361270e+04
-5.972808537516716751e+04
-5.970525797906751541e+04
-5.970338045174357103e+04
-5.971623778742425202e+04
-5.971850876979952591e+04
-5.972499005739112181e+04
-5.970432079713706480e+04
-5.971386608362929837e+04
-5.969994703710126487e+04
-5.971196641913346684e+04
-5.969964734716084786e+04
-5.971357556589787418e+04
-5.970939977038859070e+04
-5.967841209955267550e+04
-5.968069087970148394e+04
-5.968015763655702176e+04
-5.972943991794011527e+04
-5.971640169308645272e+04
-5.966908771795180655e+04
-5.965120418730690290e+04
-5.967689803556237894e+04
-5.973569310153948027e+04
-5.977669551251017401e+04
-5.994259229849404073e+04
-5.995738512568887381e+04
-5.993469790971073235e+04
-5.976639190721041814e+04
-5.974100634648213600e+04
-5.967706351428054768e+04
-5.967273063058337721e+04
-5.968139088022314536e+04
-5.972143545710980106e+04
-5.971677395684053045e+04
-5.966902033523457067e+04
-5.968124571739159728e+04
-5.966573132168115262e+04
-5.969754976832636748e+04
-5.970362367529921175e+04
-5.968106110036215978e+04
-5.966880819901337236e+04
-5.966427982607892045e+04
-5.969345468506414909e+04
-5.967456069726616261e+04
-5.971880523848709709e+04
-5.970564602767187171e+04
-5.970000029130284383e+04
-5.967257490384602715e+04
-5.968103426006552763e+04
-5.970443220216236659e+04
-5.968045756976547273e+04
-5.969227483936555655e+04
-5.967227800051116355e+04
-5.967999491555143322e+04
-5.966602175243023521e+04
-5.968474075279480894e+04
-5.968723367983712524e+04
-5.967856300528532302e+04
-5.967585528534626792e+04
-5.964225088323887030e+04
-5.968927723541145679e+04
-5.967988193859594321e+04
-5.968973601404513465e+04
-5.967297974950454227e+04
-5.964938604935158946e+04
-5.967961926204141491e+04
-5.967216217608490842e+04
-5.969404168698982539e+04
-5.972746235828032513e+04
-5.982978474782440753e+04
-5.970009023816541594e+04
-5.970441285440979846e+04
-5.969147625357778452e+04
-5.966924381613924925e+04
-5.963285311499741510e+04
-5.967282294587240176e+04
-5.968076346016813477e+04
-5.966569241423202038e+04
-5.966640043979862094e+04
-5.963920206658851384e+04
-5.967357691507794516e+04
-5.966734606000607164e+04
-5.967369111757323117e+04
-5.967562713387109397e+04
-5.966283714483787480e+04
-5.968044151598828466e+04
-5.966870608709985390e+04
-5.966397960952507856e+04
-5.966165743683731853e+04
-5.968337369258607941e+04
-5.966484921339416178e+04
-5.967273670401657000e+04
-5.967740502143210324e+04
-5.967629026743987924e+04
-5.968966975312056456e+04
-5.967630289767122304e+04
-5.967168042462501035e+04
-5.967628633799032104e+04
-5.968881604157380207e+04
-5.968765706656946713e+04
-5.968596527256198897e+04
-5.969399311595346808e+04
-5.970086312427320081e+04
-5.969396399885361461e+04
-5.967775868447760149e+04
-5.969280053324609617e+04
-5.968890307941183710e+04
-5.967935961531918292e+04
-5.968872909229591460e+04
-5.970531363533427793e+04
-5.969506373797707784e+04
-5.969937701537692919e+04
-5.968400850740681199e+04
-5.966611047671810229e+04
-5.968684350985584024e+04
-5.970267914874201233e+04
-5.969726056760559004e+04
-5.968194578428121895e+04
-5.969940209407039947e+04
-5.968517782794287632e+04
-5.968663229120678443e+04
-5.969021837853672332e+04
-5.970235355666750547e+04
-5.970001217783422180e+04
-5.968613386449545942e+04
-5.968648879701622354e+04
-5.967070233704797283e+04
-5.971792377596186998e+04
-5.971798739316972933e+04
-5.970136190461011574e+04
-5.968793390827452822e+04
-5.970330108638289676e+04
-5.972519010084270849e+04
-5.971333253753579629e+04
-5.973179503203793138e+04
-5.972345418539291859e+04
-5.971180963951746526e+04
-5.968181557918874751e+04
-5.969794919797723560e+04
-5.971552148439313896e+04
-5.973879431784695043e+04
-5.976092578382555803e+04
-5.968647043291144655e+04
-5.970378009041870973e+04
-5.975373581744392868e+04
-5.978404065474664094e+04
-5.980517933539060323e+04
-5.969065507654254907e+04
-5.969838605758778431e+04
-5.977348535863548022e+04
-5.981623767177762784e+04
-5.985250836312118918e+04
-6.026679639380015578e+04
-6.028886843174492242e+04
-6.008438105935893691e+04
-6.001209355085814605e+04
-5.991505805346469424e+04
-5.971801837353535666e+04
-5.969691887018863054e+04
-5.977641943173595791e+04
-5.977751798991959367e+04
-5.981678367147866811e+04
-5.974719734720523411e+04
-5.972968569048005884e+04
-5.976396926136295224e+04
-5.977667766335427586e+04
-5.978657593678572448e+04
-5.977313599896159576e+04
-5.976527491310574987e+04
-5.977319444855438633e+04
-5.977819422789444070e+04
-5.977007412151563767e+04
-5.979564497789641609e+04
-5.979289627008348907e+04
-5.977309720859995286e+04
-5.976928506610305340e+04
-5.977428618315330823e+04
-5.979959203140344471e+04
-5.981138012520687334e+04
-5.980406789351440239e+04
-5.980109013325950946e+04
-5.978640666101076931e+04
-5.978057909647173801e+04
-5.980804149332357338e+04
-5.981205957805384242e+04
-5.982588244996693538e+04
-5.979860734534008952e+04
-5.975481807030973869e+04
-5.979758697967138869e+04
-5.981423144608402072e+04
-5.981502128964538861e+04
-5.987517939861696505e+04
-5.997831809629451163e+04
-5.984356417393840820e+04
-5.982947932196791953e+04
-5.982403036103385966e+04
-5.981788018986048701e+04
-5.976934160487099143e+04
-5.983155214987677755e+04
-5.984581696391187870e+04
-5.984090587523686554e+04
-5.981830436273253872e+04
-5.978783782668252388e+04
-5.983852846915033297e+04
-5.983456920303976949e+04
-5.985128450578203774e+04
-5.985298077588907472e+04
-5.984921185925300233e+04
-5.984606739030532481e+04
-5.984052300149203074e+04
-5.983842104913618823e+04
-5.983771564455804764e+04
-5.985706060895088740e+04
-5.981940443534573569e+04
-5.984047677484987071e+04
-5.984353219945798628e+04
-5.984843101201616810e+04
-5.986214062233518780e+04
-5.980597213313887187e+04
-5.984981817943152419e+04
-5.986462299760441238e+04
-5.986960157218047971e+04
-5.987294675470498623e+04
-5.999210311833930609e+04
-5.990620304501040664e+04
-5.987075006567950186e+04
-5.987868141077591281e+04
-5.986569803521329595e+04
-5.983438483753900800e+04
-5.986503776889186702e+04
-5.989185715593308123e+04
-5.989103224444338412e+04
-5.988773296933242091e+04
-5.986420441482143360e+04
-5.988407485223130061e+04
-5.989706167648674455e+04
-5.989801015660024859e+04
-5.990333824929152615e+04
-5.990139151159598259e+04
-5.991396098248066119e+04
-5.991031403729347949e+04
-5.989192541178855754e+04
-5.990467964325968205e+04
-5.992947339590574848e+04
-5.992216619971635373e+04
-5.991936688779377437e+04
-5.991921441753267572e+04
-5.991869548170507915e+04
-5.992353501351916930e+04
-5.992306251887682447e+04
-5.992578232439209387e+04
-5.993417687116852903e+04
-5.993280738079504954e+04
-5.992238469134687330e+04
-5.992902954884595965e+04
-5.992268957153277006e+04
-5.995248744710514438e+04
-5.994416531315669272e+04
-5.993373811917666171e+04
-5.993409559539023758e+04
-5.995047822521368653e+04
-5.997348644264142058e+04
-5.995587269865469716e+04
-5.995876754438696662e+04
-5.995791659876897029e+04
-5.996760045757111948e+04
-5.995156028695581335e+04
-5.996038255474635662e+04
-5.998573525605302711e+04
-5.999260793581290636e+04
-5.999641878388675104e+04
-5.993334589291120210e+04
-5.998644171113490302e+04
-6.000756374800561753e+04
-6.002522990822298743e+04
-6.001542167322149908e+04
-5.993527041584256222e+04
-5.998953960848344286e+04
-6.003005080674876081e+04
-6.004541115391115454e+04
-6.006322455878579058e+04
-6.033706701385167980e+04
-6.019432821545698971e+04
-6.006690531592540356e+04
-6.005501832339791872e+04
-6.005186019940600090e+04
-5.995843741492324625e+04
-5.999686915536500601e+04
-6.006158566146013618e+04
-6.005410405402547622e+04
-6.005555953009578661e+04
-5.997987673930269375e+04
-6.001569838970778073e+04
-6.003813926698810246e+04
-6.003126453623393900e+04
-6.004627899108434940e+04
-6.004054024903476966e+04
-6.004941487017591862e+04
-6.004148989863545285e+04
-6.006572121581374086e+04
-6.005097955002667004e+04
-6.005752179070694547e+04
-6.004771613979427639e+04
-6.005385237260087888e+04
-6.007588606930511742e+04
-6.007584220852154976e+04
-6.013046044397472724e+04
-6.010591558896964125e+04
-6.010521280173068953e+04
-6.008887269259660388e+04
-6.010033680734705558e+04
-6.011852604472344683e+04
-6.012345619340623671e+04
-6.012780133523183031e+04
-6.010632404641405446e+04
-6.010842708538943407e+04
-6.007940493774336937e+04
-6.012576462529897981e+04
-6.010936904520748794e+04
-6.012759069771252689e+04
-6.014204196437652718e+04
-6.006562472196621820e+04
-6.009584141563362937e+04
-6.010850245424245077e+04
-6.012527044450049289e+04
-6.013362791749231110e+04
-6.026014666224465327e+04
-6.013589830042739050e+04
-6.014079497016457753e+04
-6.016962715490301343e+04
-6.014938719023959857e+04
-6.010020210679466254e+04
-6.015282458531622251e+04
-6.017084220833468862e+04
-6.014667134601450380e+04
-6.014712353642749804e+04
-6.014372302661686990e+04
-6.018161291339572199e+04
-6.018462765304409550e+04
-6.016313710008261842e+04
-6.018395595941984357e+04
-6.018156467152017285e+04
-6.018525491899187909e+04
-6.014903852706871839e+04
-6.016488925735509838e+04
-6.016799827019924851e+04
-6.016998535723751411e+04
-6.015629955550558952e+04
-6.017020757708074962e+04
-6.019486032899249403e+04
-6.018000145626119047e+04
-6.019167288778129296e+04
-6.016807625834587088e+04
-6.018551374579924595e+04
-6.017607337172031839e+04
-6.017708130957590038e+04
-6.018157608377448196e+04
-6.018516327263978019e+04
-6.019547648485762329e+04
-6.018239174200437265e+04
-6.020091038862324785e+04
-6.018580857370833837e+04
-6.020954312415812456e+04
-6.020895634552413685e+04
-6.021740153653678863e+04
-6.022956388616921322e+04
-6.021240422106369806e+04
-6.022981123924591520e+04
-6.020779240991749975e+04
-6.023720838023022952e+04
-6.024421939989554812e+04
-6.027008790584484086e+04
-6.024543220871479571e+04
-6.024993829313539754e+04
-6.028835514158246951e+04
-6.025391726720987936e+04
-6.030281703595910949e+04
-6.029933390059677913e+04
-6.030668895729981887e+04
-6.024268221436606109e+04
-6.025117239905594761e+04
-6.027691494289682305e+04
-6.025097896646412119e+04
-6.026975482997510699e+04
-6.026756249085121090e+04
-6.031002205101316213e+04
-6.025263637567816477e+04
-6.028761267577730177e+04
-6.029481608034670353e+04
-6.030547042509837047e+04
-6.032865076521681476e+04
-6.024222201115101052e+04
-6.031276764569900843e+04
-6.033437000360874663e+04
-6.037852347369234485e+04
-6.038237131264563504e+04
-6.031384092229452654e+04
-6.033417696439539577e+04
-6.038313833213134058e+04
-6.035278203842251241e+04
-6.017679627244007133e+04
-6.060279367431565333e+04
-6.057462851790773857e+04
-6.048206380816318415e+04
-6.064704940920763329e+04
-6.092112320736426045e+04
-6.067647839028036105e+04
-6.047801114322548528e+04
-6.044159120235915907e+04
-6.039730093925485562e+04
-6.032079272019169002e+04
-6.032313870107409457e+04
-6.052850682482877164e+04
-6.053109242408203863e+04
-6.022828766985379480e+04
-6.026459305026294896e+04
-6.020523236845625797e+04
-6.005019401763933274e+04
-6.019854697815804684e+04
-6.051805900003916031e+04
-6.041548022840245540e+04
-6.049078930487020989e+04
-6.069822963011596585e+04
-6.079080396569270670e+04
-6.070671908382898255e+04
-6.062392342438537889e+04
-6.059530360388111148e+04
-6.097264784417169722e+04
-6.106158709221209574e+04
-6.106201535732536286e+04
-6.128015925550034444e+04
-6.149595680823337170e+04
-6.084121708014764590e+04
-6.041868297613063623e+04
-6.065765716043448629e+04
-6.094989092169226933e+04
-6.077045536485064804e+04
-6.095131764590526291e+04
-6.125628238566694199e+04
-6.129147249795454991e+04
-6.101084621152266482e+04
-6.116959098294200521e+04
-6.154992861445294693e+04
-6.162044012623577146e+04
-6.154672603281940974e+04
-6.164458677202535182e+04
-6.186920278637114097e+04
-6.179694859719484521e+04
-6.180257128736182494e+04
-6.187512357627120218e+04
-6.194959072312325588e+04
-6.207067834645672701e+04
-6.191711479999091534e+04
-6.214767430440789030e+04
-6.225651688065540657e+04
-6.251522629654566845e+04
-6.228329388190239843e+04
-6.255173341987388267e+04
-6.284420409594086959e+04
-6.262899803672745475e+04
-6.246069101061755646e+04
-6.213401555091854243e+04
-6.241568582635527127e+04
-6.224844233087675093e+04
-6.236965877081000508e+04
-6.198438705220497650e+04
-6.225329110489867162e+04
-6.195597073898177041e+04
-6.133213509085607802e+04
-6.188366288853750302e+04
-6.310550085063634469e+04
-6.368017547832490527e+04
-6.327791384656164155e+04
-6.335168473240676394e+04
-6.338908789963946765e+04
-6.188665755174125661e+04
-6.169066224994197546e+04
-6.216952547866723035e+04
-6.271155747560892632e+04
-6.123455179863482772e+04
-6.184290155574526580e+04
-6.168750485697846307e+04
-6.149405378487189591e+04
-6.109488153652908659e+04
-6.201695597486873157e+04
-6.253811879920688079e+04
-6.164654815117188264e+04
-6.187465986184372741e+04
-6.292072542746766703e+04
-6.293777445066050132e+04
-6.197289925209085050e+04
-6.261707026995858178e+04
-6.174575854299979983e+04
-6.027553468218539638e+04
-6.051239015827854746e+04
-6.090932951468924148e+04
-6.081405130999229004e+04
-6.156579422879461345e+04
-6.147608269289795862e+04
-6.090049528665773687e+04
-6.078021363869515335e+04
-6.105990379611126991e+04
-6.091552118514100584e+04
-6.150052894708075473e+04
-6.151251552427612478e+04
-6.119527395765595429e+04
-6.101142504150606692e+04
-6.099556682949687820e+04
-6.101668491724339401e+04
-6.102501540439046221e+04
-6.144759529229793407e+04
-6.131124253408019285e+04
-6.101896040831035498e+04
-6.092226452942260948e+04
-6.111166533756168792e+04
-6.131756890707532875e+04
-6.122852791717831133e+04
-6.105585393116123305e+04
-6.095475207422453241e+04
-6.093975236033977853e+04
-6.055899091544668045e+04
-6.065322392983037571e+04
-6.108203069469382899e+04
-6.117165553357432509e+04
-6.111185859451515717e+04
-6.094728166150485777e+04
-6.083270023998704710e+04
-6.093597458928611013e+04
-6.094040939824584348e+04
-6.081671891859207244e+04
-6.098600923241687997e+04
-6.096506392603823042e+04
-6.077815292828155361e+04
-6.074093151160715934e+04
-6.093485858742451092e+04
-6.103982139861235191e+04
-6.148240648191139917e+04
-6.137405717590166023e+04
-6.118649054423005146e+04
-6.105720165675126918e+04
-6.098425648545775766e+04
-6.083258358634394972e+04
-6.081909900423500949e+04
-6.096283623844154499e+04
-6.098195613821924780e+04
-6.101621707717529353e+04
-6.071926810972391831e+04
-6.086474366211571032e+04
-6.095697075644078723e+04
-6.094969869218667736e+04
-6.106495564858970465e+04
-6.108263145200395229e+04
-6.096829521123619634e+04
-6.103475555058125610e+04
-6.114367305083190149e+04
-6.083804148008828633e+04
-6.090193895011160203e+04
-6.098716693238103471e+04
-6.086821685375490779e+04
-6.079345051621083985e+04
-6.089620771133476228e+04
-6.107715750053228112e+04
-6.102831078397895180e+04
-6.085254346933781926e+04
-6.088396626799561636e+04
-6.103250124591986969e+04
-6.091198107044484641e+04
-6.092900641245014413e+04
-6.105904882624164748e+04
-6.091581804225036467e+04
-6.084385164491147589e+04
-6.082464674346588436e+04
-6.078520225072395988e+04
-6.081771864828099206e+04
-6.089525914068138081e+04
-6.086529105695948965e+04
-6.083962259362261102e+04
-6.085164502213129890e+04
-6.094537239854885411e+04
-6.102286782320546627e+04
-6.094508749378163338e+04
-6.097944420231415279e+04
-6.100809696412716585e+04
-6.089931276642859302e+04
-6.086624734861500474e+04
-6.100079288948349858e+04
-6.098340406452383468e+04
-6.104282276122677285e+04
-6.102905180208281672e+04
-6.102093701828604389e+04
-6.102286066049272631e+04
-6.107121078401985869e+04
-6.092236332675233280e+04
-6.089372681748716423e+04
-6.092629905200012581e+04
-6.091132530498302367e+04
-6.098558795070699125e+04
-6.099436361091747676e+04
-6.101774345193252520e+04
-6.100067653729527228e+04
-6.093495882081834861e+04
-6.072189868621101050e+04
-6.084296868346672272e+04
-6.094478212190152408e+04
-6.082586883110852796e+04
-6.081273148661864252e+04
-6.087425239435570984e+04
-6.082008636987680802e+04
-6.072619268413538521e+04
-6.078593062828903930e+04
-6.081919193982587603e+04
-6.083075404132386757e+04
-6.077924400069723197e+04
-6.072724907898290985e+04
-6.079713170129336504e+04
-6.079011747867777012e+04
-6.081562111165705574e+04
-6.080930547098511306e+04
-6.080627881364502537e+04
-6.075677992598354467e+04
-6.075384606110103050e+04
-6.077110643106146745e+04
-6.075627398129848734e+04
-6.078593898717948468e+04
-6.076547626706767915e+04
-6.078278833113129076e+04
-6.071824260175715608e+04
-6.073496501240072394e+04
-6.077721575241455866e+04
-6.079490310384760232e+04
-6.077278469266375760e+04
-6.077749581253743236e+04
-6.082789978383916605e+04
-6.081275659783395531e+04
-6.079011168544422981e+04
-6.079449287164333509e+04
-6.080777649446504074e+04
-6.079597438760115620e+04
-6.076213409280023188e+04
-6.080380932028607640e+04
-6.080472536217974266e+04
-6.081334581491643621e+04
-6.076942607345325086e+04
-6.077252385368965770e+04
-6.075897517964343569e+04
-6.075347955776195158e+04
-6.076382160597322945e+04
-6.072527896150449669e+04
-6.073671018880197516e+04
-6.073272959467059263e+04
-6.073701830002942734e+04
-6.071523686594596074e+04
-6.075340088814433693e+04
-6.073454842559933604e+04
-6.071621147157530504e+04
-6.072492322959759622e+04
-6.070210244333471201e+04
-6.073234187430394377e+04
-6.072663717665106378e+04
-6.071177544441763166e+04
-6.069331181641099829e+04
-6.067676835734347696e+04
-6.069886636531106342e+04
-6.071711812772537814e+04
-6.076663636338094511e+04
-6.076894250428531086e+04
-6.083613976071598881e+04
-6.072137411264736147e+04
-6.071803149154401763e+04
-6.069474198990112927e+04
-6.069012390000213782e+04
-6.068042790078764665e+04
-6.071674430278363434e+04
-6.070676289249327965e+04
-6.068881161460806470e+04
-6.071276840714628634e+04
-6.067664667656132951e+04
-6.070272082615399268e+04
-6.069676783776975208e+04
-6.072176422340571298e+04
-6.070742412129313016e+04
-6.069121416878305172e+04
-6.071231019141460274e+04
-6.072226081249813433e+04
-6.072834755462316389e+04
-6.072611145807801222e+04
-6.072877589835591789e+04
-6.070647015343476960e+04
-6.070791413830700185e+04
-6.071511786450954241e+04
-6.071547817492162721e+04
-6.074485596688430087e+04
-6.072709240885196050e+04
-6.072411904112203047e+04
-6.068997853623293486e+04
-6.069931795226562099e+04
-6.072635474600335147e+04
-6.072665621553239907e+04
-6.073201478438190679e+04
-6.068705527203917154e+04
-6.069037123465474724e+04
-6.070820527267696889e+04
-6.072703249580491683e+04
-6.071904537028892082e+04
-6.085197196262203215e+04
-6.085703339606795635e+04
-6.073464557914103352e+04
-6.072514629827749013e+04
-6.071994205157260149e+04
-6.068295495549597399e+04
-6.067157222581618407e+04
-6.073242462777341279e+04
-6.073063424389973079e+04
-6.072610579886340565e+04
-6.068410358090078080e+04
-6.068404522355863446e+04
-6.071661724422999396e+04
-6.071302053821127629e+04
-6.074846046466180269e+04
-6.072796694069960358e+04
-6.073217084975521720e+04
-6.071057218487260980e+04
-6.072283311004531424e+04
-6.070774769314260629e+04
-6.071977002648992493e+04
-6.072342227493649261e+04
-6.071921395858850883e+04
-6.070945772155252052e+04
-6.068062966206087003e+04
-6.072996828792072483e+04
-6.073648189237395127e+04
-6.074288485549230973e+04
-6.071300348162381852e+04
-6.069502324815028260e+04
-6.074833939525408641e+04
-6.073999358098755329e+04
-6.075134995894371968e+04
-6.080551708412313019e+04
-6.089091091562148358e+04
-6.076571049262759334e+04
-6.077468623213475075e+04
-6.076496325756172882e+04
-6.074835440607384953e+04
-6.072581205140079692e+04
-6.075694856176296162e+04
-6.077434261341716774e+04
-6.077038857714762707e+04
-6.076839948690083111e+04
-6.074586464943246392e+04
-6.078564584002174524e+04
-6.078323594223566761e+04
-6.078483020231383853e+04
-6.078251495717584476e+04
-6.076695010237141832e+04
-6.077809318824471120e+04
-6.076620840053520078e+04
-6.078057012430967006e+04
-6.078277200813787204e+04
-6.078264094403152558e+04
-6.079409101112006465e+04
-6.079398311613688566e+04
-6.079308394904900342e+04
-6.078671448233535921e+04
-6.081121309091085277e+04
-6.078931235913898854e+04
-6.079445168060471042e+04
-6.079932536937721306e+04
-6.079674397586949635e+04
-6.082567112470338907e+04
-6.079742015750053542e+04
-6.081165338959288783e+04
-6.080231899978382717e+04
-6.081856909997652838e+04
-6.081845616739316756e+04
-6.081174987794223125e+04
-6.081891127053993841e+04
-6.081316153910227149e+04
-6.083077707748497050e+04
-6.080991810615993018e+04
-6.083330626445499365e+04
-6.083232940650677483e+04
-6.084025951808803802e+04
-6.082342645159381937e+04
-6.078548879189921718e+04
-6.085729195793843246e+04
-6.085558448512318864e+04
-6.088010841258831351e+04
-6.083351657558898296e+04
-6.077629575973504689e+04
-6.086312860382668441e+04
-6.087444679030728003e+04
-6.087912008460410289e+04
-6.095779010527585342e+04
-6.115920000460356096e+04
-6.090812269521947019e+04
-6.089447939323735773e+04
-6.088018390994685615e+04
-6.086083288028813695e+04
-6.080733531656525156e+04
-6.088493561591632897e+04
-6.090412588148396026e+04
-6.089111654993030243e+04
-6.088538530090928543e+04
-6.083134678922392777e+04
-6.089955636205137125e+04
-6.089525743564053846e+04
-6.089816525607672520e+04
-6.089500192846658319e+04
-6.086092905924418301e+04
-6.087822046550056257e+04
-6.090418014148004295e+04
-6.092529236305319500e+04
-6.090280455251236708e+04
-6.091369240677526977e+04
-6.090458776724201016e+04
-6.088165036563271133e+04
-6.088204151547620131e+04
-6.090247010189134744e+04
-6.094885212330636568e+04
-6.092197399358320399e+04
-6.091689688283134456e+04
-6.092029014876518340e+04
-6.093786517794714018e+04
-6.094903257970868435e+04
-6.094757713600972784e+04
-6.095295281467652967e+04
-6.095060124232606904e+04
-6.095012527255363239e+04
-6.094493839463471522e+04
-6.095710017557055835e+04
-6.096778010821863427e+04
-6.096739146454066940e+04
-6.095461085797764099e+04
-6.094185432120104088e+04
-6.094615593363617518e+04
-6.096707666813107789e+04
-6.096593267290418589e+04
-6.096361954702283401e+04
-6.095923727756263543e+04
-6.096599537230697024e+04
-6.098523185673095577e+04
-6.097604651002788887e+04
-6.098443523558299785e+04
-6.099003260167970438e+04
-6.100429286799472902e+04
-6.099071926543068548e+04
-6.099365895913282293e+04
-6.099869325522486906e+04
-6.099616210515329294e+04
-6.099773564286912733e+04
-6.096480623183622811e+04
-6.100759629996134026e+04
-6.100713290397356468e+04
-6.101691770291614375e+04
-6.100760694149686606e+04
-6.094422708702482487e+04
-6.098578076622509252e+04
-6.101172828103378561e+04
-6.102769656372213649e+04
-6.103363378758292674e+04
-6.120836545783213660e+04
-6.108725945268601208e+04
-6.102834419568080193e+04
-6.102193049523420632e+04
-6.101582507874532166e+04
-6.097028511423950113e+04
-6.100458218295905681e+04
-6.103429738223847380e+04
-6.101606834223610349e+04
-6.102320186095554527e+04
-6.098379617006699846e+04
-6.101300838413145539e+04
-6.101819930802939780e+04
-6.102450237376153382e+04
-6.103262166110021644e+04
-6.101494350496588595e+04
-6.102602664720814937e+04
-6.102907034058078716e+04
-6.103285421904964460e+04
-6.102904906649491750e+04
-6.103703467406368145e+04
-6.102737433298729593e+04
-6.102597304153504956e+04
-6.102851383185294253e+04
-6.103401800278911833e+04
-6.105380761784320930e+04
-6.104647219362464239e+04
-6.105017529537578957e+04
-6.104539375891163218e+04
-6.104298337574368634e+04
-6.105259581527108094e+04
-6.104823006384952896e+04
-6.104330267507035023e+04
-6.105010268540692778e+04
-6.105386480378714623e+04
-6.106224378109164536e+04
-6.107253566014581884e+04
-6.105098577289069362e+04
-6.105729398509747261e+04
-6.105751846797762119e+04
-6.106787141359731322e+04
-6.107838750747275481e+04
-6.107016587077445729e+04
-6.106664280431296356e+04
-6.106223361190033756e+04
-6.105974070829794073e+04
-6.105852563872328756e+04
-6.107490480436945654e+04
-6.106346888183747797e+04
-6.107772835827711242e+04
-6.105102844978799112e+04
-6.103740366785148217e+04
-6.108616398950925941e+04
-6.109285790022882429e+04
-6.110712235348742979e+04
-6.103164167285853182e+04
-6.100723665635745419e+04
-6.109043153484755749e+04
-6.110204982959109475e+04
-6.109289941668146639e+04
-6.126993043305457104e+04
-6.134463339704184182e+04
-6.110530726110145042e+04
-6.110344170645419945e+04
-6.109481660064450989e+04
-6.103743348677355971e+04
-6.100831591001157358e+04
-6.108984040988416382e+04
-6.108722229863879329e+04
-6.108505518076763110e+04
-6.105233070892541582e+04
-6.102992767054994329e+04
-6.108013035883224802e+04
-6.107318883407831891e+04
-6.107852519153964386e+04
-6.106847453181602032e+04
-6.106522027208832878e+04
-6.107924506786868005e+04
-6.106863755209941155e+04
-6.106687737327796640e+04
-6.107193788799241884e+04
-6.107985624876541260e+04
-6.105828339246738324e+04
-6.105767274795678532e+04
-6.106291444209551992e+04
-6.107873918831084302e+04
-6.108195988465686969e+04
-6.105774540061353036e+04
-6.106769145227031549e+04
-6.107070243279513670e+04
-6.106809420521091670e+04
-6.106355729047191562e+04
-6.105830456573529227e+04
-6.106434529739733989e+04
-6.105421773955347453e+04
-6.105832684361530119e+04
-6.105851548135244957e+04
-6.106852679001902288e+04
-6.105402850612639304e+04
-6.105398758128166810e+04
-6.105555695532840036e+04
-6.106308819432109158e+04
-6.105907639213952643e+04
-6.105665802879872354e+04
-6.106212829202388821e+04
-6.105478128799800470e+04
-6.104866882326075574e+04
-6.105276777289429447e+04
-6.105891404184258863e+04
-6.105642305639987171e+04
-6.105882807575479092e+04
-6.105300398137037701e+04
-6.104912981430520449e+04
-6.104396146075545403e+04
-6.104981131364635803e+04
-6.105379516419086576e+04
-6.105529022281822836e+04
-6.106203724337276071e+04
-6.106322114724061976e+04
-6.106172958792502322e+04
-6.105835833047259803e+04
-6.106361665958214871e+04
-6.106209896838809073e+04
-6.105643550814515038e+04
-6.105976547084740014e+04
-6.106386713964816590e+04
-6.106171578429415968e+04
-6.105427673217465781e+04
-6.106284576530522463e+04
-6.105873901836126606e+04
-6.105637338194170297e+04
-6.105609195998284849e+04
-6.105172721215408092e+04
-6.105700774394872133e+04
-6.106183843818850437e+04
-6.106468869309320144e+04
-6.107340671964102512e+04
-6.107180305729638349e+04
-6.106430955452537455e+04
-6.105233568455549539e+04
-6.106172116187654319e+04
-6.105947400608650787e+04
-6.106238614713558491e+04
-6.106087530070502544e+04
-6.106920952980915172e+04
-6.107124581129027501e+04
-6.104793971013018017e+04
-6.105663907226289302e+04
-6.104665147177672043e+04
-6.105872279945731862e+04
-6.105122410326843237e+04
-6.106529234644280950e+04
-6.106372263085850864e+04
-6.105060024575774150e+04
-6.105965790110053786e+04
-6.105227190055334358e+04
-6.106452375908991235e+04
-6.104892014854922309e+04
-6.105785766218762728e+04
-6.104936092833775183e+04
-6.104948589756073488e+04
-6.105014385062746442e+04
-6.104136794715777796e+04
-6.107036709288225393e+04
-6.103709885512015171e+04
-6.104188542238294031e+04
-6.103352844959922368e+04
-6.104043786660533806e+04
-6.105774221759811189e+04
-6.104377872160932020e+04
-6.106131915782777651e+04
-6.104008924597789883e+04
-6.104628575921627635e+04
-6.102382781077230175e+04
-6.105014083264492365e+04
-6.103938437612810958e+04
-6.103914863122935640e+04
-6.105808015128318220e+04
-6.098916984696073632e+04
-6.104853762863419252e+04
-6.104269347582815681e+04
-6.106500977680252981e+04
-6.104406816929041815e+04
-6.096927258363685542e+04
-6.102821760674785037e+04
-6.104976158324569406e+04
-6.107455177009108593e+04
-6.106360925993432465e+04
-6.131361259574959695e+04
-6.111140999807768094e+04
-6.106889511502804089e+04
-6.105978731094077375e+04
-6.103144161449580133e+04
-6.095910680080092425e+04
-6.101047632944587531e+04
-6.105672358089751651e+04
-6.102723532625228108e+04
-6.105033525820614159e+04
-6.097605219422714435e+04
-6.102530893917627691e+04
-6.102127796243009652e+04
-6.099428592208745977e+04
-6.103682890750382649e+04
-6.100613754935145698e+04
-6.104376499918599438e+04
-6.100478766134691250e+04
-6.099936591984669212e+04
-6.103178637746798631e+04
-6.105101693117235118e+04
-6.103987431495013880e+04
-6.107165937343431142e+04
-6.117080762938949192e+04
-6.102766872535149741e+04
-6.106333248276612721e+04
-6.103121080270519451e+04
-6.102381717207498878e+04
-6.098945017181790899e+04
-6.102773981951327733e+04
-6.104303652955059806e+04
-6.101682568722283031e+04
-6.102888977734819491e+04
-6.099172555926242785e+04
-6.104093249679275323e+04
-6.102818289190588257e+04
-6.103697510934034653e+04
-6.103951465518834448e+04
-6.102312420402525458e+04
-6.102529225895482523e+04
-6.099784500975589617e+04
-6.103379727540200111e+04
-6.101624143086246477e+04
-6.103212127866344963e+04
-6.102093050768773537e+04
-6.101445328965860244e+04
-6.101970044463069644e+04
-6.101205451961191284e+04
-6.103238715859276999e+04
-6.101520312926447514e+04
-6.103161642782609124e+04
-6.101241592435084749e+04
-6.102521914859821845e+04
-6.103190203611870675e+04
-6.102219945322685089e+04
-6.102777744277033344e+04
-6.101746783031550149e+04
-6.103503248023541528e+04
-6.102109256877216103e+04
-6.102834610012180929e+04
-6.102663637943282083e+04
-6.102976929749595001e+04
-6.102948615734160558e+04
-6.102408503421025671e+04
-6.103436822393049806e+04
-6.103129203246417455e+04
-6.104988828376574384e+04
-6.103399975197485037e+04
-6.103405847177073883e+04
-6.103946191340389487e+04
-6.103229654196694901e+04
-6.103453847312081052e+04
-6.104322925677992316e+04
-6.105578004115514341e+04
-6.104560342029736785e+04
-6.104876236072182655e+04
-6.104130695096702402e+04
-6.104329614770426997e+04
-6.104809274326367449e+04
-6.104872808955221990e+04
-6.105033416118136665e+04
-6.105031969598367141e+04
-6.105715034106816893e+04
-6.104802298655716004e+04
-6.105027012161706079e+04
-6.105744103229604661e+04
-6.106253517792276398e+04
-6.105881043245320325e+04
-6.105810325921911135e+04
-6.105366998443652119e+04
-6.105451722205877741e+04
-6.105296666143061157e+04
-6.105668665299194254e+04
-6.105561924091060064e+04
-6.104994067494577757e+04
-6.105484559821569565e+04
-6.105566456336824922e+04
-6.105972001127347175e+04
-6.105837954769218777e+04
-6.106366534667432279e+04
-6.105021701242143899e+04
-6.104939817140524974e+04
-6.105060076184307400e+04
-6.105751892396975745e+04
-6.106653237902908586e+04
-6.105084216677102086e+04
-6.106094501900269825e+04
-6.105458012421110470e+04
-6.108027005665384786e+04
-6.107871028389455751e+04
-6.107350211566343205e+04
-6.107238408433245058e+04
-6.106951724607207871e+04
-6.107572296839780029e+04
-6.107136324644882552e+04
-6.108365077539059712e+04
-6.108042738041716075e+04
-6.110147652982600994e+04
-6.105323116028028744e+04
-6.104771761352986505e+04
-6.109882701159665885e+04
-6.110174932071936200e+04
-6.111052771876172483e+04
-6.104608872228841210e+04
-6.103540653172352177e+04
-6.110058522219310544e+04
-6.111709860611586191e+04
-6.111831602834785735e+04
-6.129162099615618354e+04
-6.134307910887968319e+04
-6.113788316672830842e+04
-6.113342283645208954e+04
-6.112171566127651749e+04
