-7.467622817457992642e+04
-7.813370447628127295e+04
-8.482932673063098628e+04
-8.612625003784371074e+04
-9.014491082097341132e+04
-7.581294722503182129e+04
-7.811545323065062985e+04
-8.426787897450152377e+04
-8.380436375048427726e+04
-8.957244443181500537e+04
-7.781890882872854127e+04
-8.117548750265894341e+04
-8.223221060341586417e+04
-8.314412297016660159e+04
-8.565598169138810772e+04
-8.116266307165069156e+04
-8.371131743846544123e+04
-8.096569950962469738e+04
-8.340490437619297882e+04
-8.134240602598848636e+04
-8.452635765043977881e+04
-8.377071822269979748e+04
-8.190213627112685936e+04
-8.292524047227007395e+04
-7.995584515549271600e+04
-8.537690986268287816e+04
-8.263978732088189281e+04
-8.351316280190242105e+04
-8.209695667801973468e+04
-8.165834327918320196e+04
-8.371410132007155335e+04
-8.244642559197322407e+04
-8.386524136397514667e+04
-8.202712740642325662e+04
-8.356500119836245722e+04
-8.184427578508066654e+04
-8.287883787573348673e+04
-8.294474167506143567e+04
-8.290173126663215226e+04
-8.393848522249166854e+04
-8.169167319163963839e+04
-8.312045306347988662e+04
-8.238973800810909597e+04
-8.346376869245359558e+04
-8.318685193747568701e+04
-8.258672687390123610e+04
-8.285388570779225847e+04
-8.253817831141353236e+04
-8.321345123268193856e+04
-8.262351768196430930e+04
-8.329159947046198067e+04
-8.267738534914462070e+04
-8.291506258959388651e+04
-8.274632748940886813e+04
-8.260911440554261208e+04
-8.318067723702530202e+04
-8.280483111354893481e+04
-8.305775020390877035e+04
-8.263316886168420024e+04
-8.280110028024684289e+04
-8.297984873439001967e+04
-8.297269454819562088e+04
-8.296136864151462214e+04
-8.282970102313383541e+04
-8.293490783311633277e+04
-8.281278201907924085e+04
-8.295458480594377033e+04
-8.285979686625675822e+04
-8.294903217549924739e+04
-8.292599901527409384e+04
-8.284207664476023638e+04
-8.290958275927137583e+04
-8.289106907780916663e+04
-8.296788186480266450e+04
-8.295531767317256890e+04
-8.292371607776588644e+04
-8.293315338369342498e+04
-8.296265144147542014e+04
-8.295363268453683122e+04
-8.291769674439060327e+04
-8.294347571652175975e+04
-8.292548632538896345e+04
-8.289028657181614835e+04
-8.288174741151655326e+04
-8.290824032980269112e+04
-8.288440535520140838e+04
-8.287775430975052586e+04
-8.286783077397396846e+04
-8.285979361558191886e+04
-8.284749681155051803e+04
-8.283227648060760112e+04
-8.282851900301713613e+04
-8.281892855582042830e+04
-8.280539388231230259e+04
-8.279639846580331505e+04
-8.279010542283319228e+04
-8.278507236551378446e+04
-8.278352174646688218e+04
-8.278631356190942461e+04
-8.276751812204536691e+04
-8.275740656688703166e+04
-8.274526070126173727e+04
-8.273906478754198179e+04
-8.271606185940549767e+04
-8.272354885487549473e+04
-8.271352184050471988e+04
-8.270776745030647726e+04
-8.269992278512998018e+04
-8.268951374845644750e+04
-8.265445435372689099e+04
-8.264629304999408487e+04
-8.265025672734789259e+04
-8.263738344248884823e+04
-8.262659807782847201e+04
-8.262211156284459867e+04
-8.262233540510278544e+04
-8.258574512840024545e+04
-8.255776929688187374e+04
-8.258239250444651407e+04
-8.259051349888523691e+04
-8.258742649679610622e+04
-8.258502088112541242e+04
-8.260966667194855108e+04
-8.253397758031787816e+04
-8.251280968588459655e+04
-8.250622592441187589e+04
-8.250115249912271975e+04
-8.247260037799633574e+04
-8.248832025241841620e+04
-8.248085600147106743e+04
-8.244794125850772252e+04
-8.245526860201489762e+04
-8.242988784866059723e+04
-8.245026556271403388e+04
-8.242613621460188006e+04
-8.237973579325884930e+04
-8.239232770416649873e+04
-8.238300751528341789e+04
-8.231452964715742564e+04
-8.228522253113018814e+04
-8.233528385194939619e+04
-8.222615376178672886e+04
-8.220227347932399425e+04
-8.220358843294798862e+04
-8.219090520239531179e+04
-8.214526802980306093e+04
-8.215439463102632726e+04
-8.215269489996026095e+04
-8.211838184165011626e+04
-8.209175924266623042e+04
-8.205784877640119521e+04
-8.205076152136009478e+04
-8.201319825250566646e+04
-8.196600461710574746e+04
-8.194962385239763535e+04
-8.192206452341962722e+04
-8.189057236932979140e+04
-8.184863256336587074e+04
-8.184716506398793717e+04
-8.181560464956963551e+04
-8.179778825429042627e+04
-8.181065374396894185e+04
-8.177102084679955442e+04
-8.176998081599772559e+04
-8.175746801805113500e+04
-8.174440310752076039e+04
-8.170332012037481763e+04
-8.172879660447078641e+04
-8.172241167082439642e+04
-8.169176077713024279e+04
-8.168746274921066652e+04
-8.167758081508344912e+04
-8.169597528682736447e+04
-8.164667137494972849e+04
-8.167144809474157228e+04
-8.166139579264272470e+04
-8.165892079488256422e+04
-8.166488526191732672e+04
-8.166337357542771497e+04
-8.164597761169554724e+04
-8.167028677397318825e+04
-8.168229439130189712e+04
-8.161111289719495107e+04
-8.157508198168344097e+04
-8.153792830827318539e+04
-8.148435469688526064e+04
-8.150790913973090937e+04
-8.147350717442197492e+04
-8.143723454115813365e+04
-8.146494614279489906e+04
-8.133960956098287716e+04
-8.134346099768330168e+04
-8.135646600587066496e+04
-8.137288305653994030e+04
-8.135543683896353468e+04
-8.137660020380695642e+04
-8.132425341432026471e+04
-8.126526253438618733e+04
-8.136637103306905192e+04
-8.124332984439018765e+04
-8.140214654969456024e+04
-8.113889844999180059e+04
-8.112529603967693402e+04
-8.122623898633310455e+04
-8.116815431078842084e+04
-8.132734999279286421e+04
-8.108105248885745823e+04
-8.122787786889029667e+04
-8.099586078713579627e+04
-8.114516764177464938e+04
-8.105317549098881136e+04
-8.118899054921696370e+04
-8.125843191542378918e+04
-8.082432756133579824e+04
-8.106865166103438241e+04
-8.056305110358601087e+04
-8.140607130838463490e+04
-8.108625383043149486e+04
-8.105574973295016389e+04
-8.090994105986233626e+04
-8.052130311545993027e+04
-8.123103565250433167e+04
-8.078392482516700693e+04
-8.134525087618436373e+04
-8.071860323869295826e+04
-8.112694794913023361e+04
-8.043740575665577489e+04
-8.063695421197843098e+04
-8.114631735599563399e+04
-8.080212119171334780e+04
-8.171876152229768923e+04
-7.973730275323093520e+04
-8.063356019780001952e+04
-8.033633170274311851e+04
-8.111673286717435985e+04
-8.141814628467662260e+04
-8.007445690192894835e+04
-8.055458441131944710e+04
-7.980515444675090839e+04
-8.107093145506968722e+04
-8.023146673348010518e+04
-8.153400808615708956e+04
-8.043867491683586559e+04
-8.015269277475007402e+04
-7.994302202110402868e+04
-7.877288011684079538e+04
-8.296981185026284948e+04
-8.113743491314764833e+04
-8.101085384338544100e+04
-7.836859151779895183e+04
-7.734212000726086262e+04
-8.324881222913626698e+04
-8.276879610952609801e+04
-8.159864193863606488e+04
-7.768452628333219036e+04
-7.597893255370724364e+04
-5.268401326563526527e+04
-5.061827935394772794e+04
-4.777589017893511482e+04
-4.774137529854198510e+04
-4.686694893619645882e+04
-5.190599480676689564e+04
-5.085313808349238388e+04
-4.851257291922358127e+04
-4.858078345018046093e+04
-4.669003779175348609e+04
-5.090192718390182563e+04
-4.968804079712870589e+04
-4.933692153616977885e+04
-4.896432841775397537e+04
-4.797143732804176398e+04
-4.953807387870031380e+04
-4.882520746716795838e+04
-4.987297763379097887e+04
-4.891148870544482634e+04
-4.953756868794899492e+04
-4.839133038407435379e+04
-4.876370765162038879e+04
-4.946613793735037325e+04
-4.906983471924537298e+04
-5.006595409843618108e+04
-4.817794518755083845e+04
-4.915261286691305577e+04
-4.883222652849694714e+04
-4.938868587538609427e+04
-4.942585795518675877e+04
-4.870773610326296330e+04
-4.919377007253869670e+04
-4.868036325515453063e+04
-4.935938536851007666e+04
-4.891534561115802353e+04
-4.955232617986888363e+04
-4.903362527646192029e+04
-4.896748678472068423e+04
-4.904916980974613398e+04
-4.886649376138736989e+04
-4.959242839378349890e+04
-4.899007749639761460e+04
-4.927387577422309550e+04
-4.879202560483361594e+04
-4.884314713002245117e+04
-4.908350781265056867e+04
-4.903645840827615029e+04
-4.917518467874501221e+04
-4.894794589237095352e+04
-4.903171048672462348e+04
-4.880005638615906355e+04
-4.915008541226522357e+04
-4.900719826687713066e+04
-4.903408429147521383e+04
-4.909944471321866149e+04
-4.887070953878953878e+04
-4.898621853705910326e+04
-4.886768929685137846e+04
-4.902557183053944755e+04
-4.900652174582891894e+04
-4.895770435034661932e+04
-4.894912224603843788e+04
-4.899533125005508191e+04
-4.912902035876041919e+04
-4.902674270595151029e+04
-4.905985716411473550e+04
-4.891874238631551998e+04
-4.894646881966845831e+04
-4.882299081075090362e+04
-4.887233475379654556e+04
-4.892933104351205111e+04
-4.892751742102872959e+04
-4.894284456601963757e+04
-4.891241079585345142e+04
-4.892176510780407261e+04
-4.890435288242594106e+04
-4.891484528548705566e+04
-4.891098027141106286e+04
-4.888722260831833410e+04
-4.891786601971287746e+04
-4.894693216080850107e+04
-4.895405848237605096e+04
-4.893512030152349325e+04
-4.901549712028998329e+04
-4.896521684302543144e+04
-4.888604497362332768e+04
-4.892049610880704859e+04
-4.889285727999428491e+04
-4.887689286677541531e+04
-4.888546732870601409e+04
-4.894023428394551593e+04
-4.892325529673964775e+04
-4.893359386352646834e+04
-4.889341551345801417e+04
-4.888528381668289512e+04
-4.893344718086934154e+04
-4.887382463895531691e+04
-4.889904598433854699e+04
-4.890400868317218556e+04
-4.892958064834951801e+04
-4.886443244043379673e+04
-4.889281688601629139e+04
-4.888792111862323509e+04
-4.885085941331629874e+04
-4.885702639295538393e+04
-4.886744827180547873e+04
-4.888149193365710380e+04
-4.887029822717967181e+04
-4.892172414542289334e+04
-4.887704751377815410e+04
-4.885539602581290819e+04
-4.887600950260044192e+04
-4.884692146370343107e+04
-4.889054972137736331e+04
-4.892510433895064489e+04
-4.897024167535809829e+04
-4.889614845466671977e+04
-4.890720796856507513e+04
-4.882297481884772424e+04
-4.879525201648248913e+04
-4.879131143767151661e+04
-4.882626657800690009e+04
-4.884927181926448247e+04
-4.886567350509548851e+04
-4.888746063870151556e+04
-4.884574553146762628e+04
-4.885620406801602076e+04
-4.884742676883073000e+04
-4.883331951561725145e+04
-4.885271468990982248e+04
-4.887934398067822622e+04
-4.888568950744132599e+04
-4.885053534586494061e+04
-4.886375797093713481e+04
-4.883111309853520652e+04
-4.883465605792557471e+04
-4.882300715180991392e+04
-4.882876044245703815e+04
-4.884611335976414557e+04
-4.885207487345608388e+04
-4.882088261505344417e+04
-4.879833541335428890e+04
-4.881609897499373619e+04
-4.879722358428120060e+04
-4.877808829332694586e+04
-4.884157536895688827e+04
-4.881624323715750506e+04
-4.881913410784300504e+04
-4.884553901908249100e+04
-4.885839096097298898e+04
-4.879477452441913920e+04
-4.884206602507846401e+04
-4.884431807764024416e+04
-4.879040903744962270e+04
-4.880393248408897489e+04
-4.882399583295389311e+04
-4.885354034442720877e+04
-4.880088670481477311e+04
-4.881284768166433059e+04
-4.883946092209944618e+04
-4.883201242867881956e+04
-4.877071146445281192e+04
-4.880370728102834983e+04
-4.881930502732736932e+04
-4.879962741636092687e+04
-4.882297812566554785e+04
-4.885215847228257189e+04
-4.885210088909376645e+04
-4.886073523390066111e+04
-4.881801755109109217e+04
-4.883939333816565340e+04
-4.879883748043912783e+04
-4.880862059761887940e+04
-4.882863894104246720e+04
-4.883359552572597750e+04
-4.878933450737302337e+04
-4.883807274192941259e+04
-4.885603545447534270e+04
-4.878398187198144296e+04
-4.884615814281466737e+04
-4.885137869726073404e+04
-4.882882495281055162e+04
-4.874553195653558942e+04
-4.879518838938557019e+04
-4.878078638613200019e+04
-4.877716305495836423e+04
-4.877656981107276806e+04
-4.881423614758832991e+04
-4.879515829685822973e+04
-4.876650993927723175e+04
-4.879028693131780165e+04
-4.877776647666658391e+04
-4.880548149683209340e+04
-4.882101825269167603e+04
-4.882046739228072693e+04
-4.880364529155929631e+04
-4.881550183642353659e+04
-4.884099826464484795e+04
-4.880404744448180281e+04
-4.880256430445684964e+04
-4.882363085029867943e+04
-4.885259699679712503e+04
-4.874997685280442965e+04
-4.878813157898689678e+04
-4.880485539663398959e+04
-4.878395005046273582e+04
-4.875985502101398743e+04
-4.881335422176087741e+04
-4.879162815616169246e+04
-4.880368970212999557e+04
-4.881183528768617543e+04
-4.876450673557247501e+04
-4.876648635588199977e+04
-4.881850731530939811e+04
-4.881348869921585720e+04
-4.881973427209426882e+04
-4.883790960894058662e+04
-4.881478837186596502e+04
-4.874263065292628744e+04
-4.874486430452104833e+04
-4.873473729629020818e+04
-4.878124381427470507e+04
-4.881426850719136564e+04
-4.880892343796993373e+04
-4.877748643017034192e+04
-4.877529199155262177e+04
-4.878616600678229588e+04
-4.882009673884345830e+04
-4.884684111235883756e+04
-4.884554821359713242e+04
-4.887255420614107425e+04
-4.882819345243257703e+04
-4.873987886067532236e+04
-4.877491475743713090e+04
-4.880035335690838110e+04
-4.878579585763643263e+04
-4.877774299198595691e+04
-4.879150703475225600e+04
-4.876941677188257745e+04
-4.882194125767222431e+04
-4.879513928395169933e+04
-4.880265890488044533e+04
-4.881420542988897796e+04
-4.879468085616797180e+04
-4.875757033427697752e+04
-4.880245180888507457e+04
-4.879403035565038590e+04
-4.881182258952452685e+04
-4.882976070177353540e+04
-4.876982631270340789e+04
-4.874852197384922329e+04
-4.877393109164468478e+04
-4.875684066625620471e+04
-4.869510221719789115e+04
-4.873176948687984986e+04
-4.879495852401817683e+04
-4.881692094082781841e+04
-4.885353894905470952e+04
-4.891748857215424505e+04
-4.894864684465226310e+04
-4.880538019163443823e+04
-4.876763705213560024e+04
-4.874030691230039520e+04
-4.874177201709401561e+04
-4.872622165872098412e+04
-4.881015626782086474e+04
-4.878863389800046571e+04
-4.872375455655598489e+04
-4.874148589583407011e+04
-4.873825077841157326e+04
-4.877076173630460107e+04
-4.876934956501038687e+04
-4.882133099731975381e+04
-4.875526896349192248e+04
-4.873809317847705097e+04
-4.872942383254668675e+04
-4.877212550193985953e+04
-4.877322923526946397e+04
-4.874592049238579784e+04
-4.876387812269153801e+04
-4.873073274585221225e+04
-4.871044279860305687e+04
-4.872634433899367286e+04
-4.877706011090825632e+04
-4.877072827373279142e+04
-4.872404928261340683e+04
-4.874496928896326426e+04
-4.873072772526805784e+04
-4.877374832383100875e+04
-4.879048709377158957e+04
-4.887106209265958023e+04
-4.882591772308957297e+04
-4.877665371056014556e+04
-4.876216282319757011e+04
-4.873448633860241534e+04
-4.874434399123538606e+04
-4.875392903681635653e+04
-4.879447035352583771e+04
-4.873738891859680007e+04
-4.876653991307923570e+04
-4.874442069263022131e+04
-4.876967406210524496e+04
-4.879617455250376952e+04
-4.879579113754750142e+04
-4.879202016499826277e+04
-4.876263802276147180e+04
-4.875578447539452463e+04
-4.873703259642388002e+04
-4.877875070244294329e+04
-4.878663828440114594e+04
-4.880939846211993427e+04
-4.881136286380742968e+04
-4.877278191493848135e+04
-4.879079114000454138e+04
-4.877112145067615347e+04
-4.879758091704113758e+04
-4.880068806796676654e+04
-4.883249672973550332e+04
-4.879915286767428915e+04
-4.879361014016476838e+04
-4.879008210365285777e+04
-4.880065775683358515e+04
-4.881513626976888918e+04
-4.880348665628456365e+04
-4.884872271847278898e+04
-4.880547766607433732e+04
-4.875987727439273294e+04
-4.875675545771943871e+04
-4.876011752027108741e+04
-4.873796234708926931e+04
-4.877834706456927961e+04
-4.881344769469829043e+04
-4.876349337764831580e+04
-4.879287483497271023e+04
-4.879407577034854330e+04
-4.879996931971893355e+04
-4.881397138248955162e+04
-4.883755137707913673e+04
-4.883455328573760198e+04
-4.882675398935109843e+04
-4.880801846963157732e+04
-4.876707798791051755e+04
-4.879677670427851263e+04
-4.879003558117836656e+04
-4.880553940353290091e+04
-4.882618625620929379e+04
-4.884590650440215541e+04
-4.884641816589612426e+04
-4.881178919256870722e+04
-4.879170575910528714e+04
-4.877283839365070889e+04
-4.880148529519703152e+04
-4.880875264467353554e+04
-4.883019011843896442e+04
-4.883709255549212685e+04
-4.885885718526087294e+04
-4.884980988293477276e+04
-4.873933710615807649e+04
-4.876990412995354563e+04
-4.882413611849916197e+04
-4.881474081400023715e+04
-4.879505433109875594e+04
-4.887054136329078028e+04
-4.885436529140479979e+04
-4.880996233386451786e+04
-4.880879437854063144e+04
-4.880515832227182545e+04
-4.889517648869712866e+04
-4.885434887146463734e+04
-4.886296433106710174e+04
-4.888371047325668042e+04
-4.891381061847857200e+04
-4.880259014290719642e+04
-4.884633782777816668e+04
-4.883407118418569735e+04
-4.882184180500725779e+04
-4.880315243209837354e+04
-4.886720143904881843e+04
-4.889674423594004475e+04
-4.890789974426578556e+04
-4.893042957006688812e+04
-4.888116062837454956e+04
-4.878888562845865818e+04
-4.883177910729947325e+04
-4.887313978315991699e+04
-4.886865349225996761e+04
-4.902184094755086699e+04
-4.911732338306191377e+04
-4.894443616526293044e+04
-4.890963898268510093e+04
-4.891889666131250124e+04
-4.887853304812955321e+04
-4.886611085307142639e+04
-4.894103725806188595e+04
-4.895781640128418803e+04
-4.893742052743287059e+04
-4.883447643504368898e+04
-4.882549824512899067e+04
-4.887359059126544162e+04
-4.889606079807212518e+04
-4.892492396197679773e+04
-4.893803934063247289e+04
-4.890679135426288849e+04
-4.897226173762249527e+04
-4.895708575647394900e+04
-4.891773097305827832e+04
-4.897522467860257893e+04
-4.899290605950631289e+04
-4.889684576467594161e+04
-4.883993845295593928e+04
-4.890180521333550132e+04
-4.892590846949270053e+04
-4.894036023104940250e+04
-4.892787698846310377e+04
-4.897335943196178414e+04
-4.894586494298239268e+04
-4.894154571483386098e+04
-4.898689527774160524e+04
-4.897108611785117682e+04
-4.901771879962036473e+04
-4.903435424541153770e+04
-4.898667894287658419e+04
-4.890747638624112005e+04
-4.897054460156754794e+04
-4.896917329786828486e+04
-4.895914893253248738e+04
-4.899761533846332895e+04
-4.902267839972436923e+04
-4.905369863915956375e+04
-4.903188430892532779e+04
-4.904616111219902086e+04
-4.904329035972197744e+04
-4.903131168785312184e+04
-4.902675231978004012e+04
-4.904875062697010435e+04
-4.904737156733150914e+04
-4.903913416075042915e+04
-4.910952953776427603e+04
-4.904220733769553772e+04
-4.898707808915068017e+04
-4.900144688986698020e+04
-4.903672799124170706e+04
-4.902605349361322442e+04
-4.906338395980717178e+04
-4.909668651478023821e+04
-4.909506864069669973e+04
-4.907903796163858351e+04
-4.903596771851236554e+04
-4.901957003494451783e+04
-4.904822966889292002e+04
-4.905056694423019508e+04
-4.906244880206078233e+04
-4.904858198650707345e+04
-4.905875973850321316e+04
-4.908750301566657436e+04
-4.910558471044699399e+04
-4.907629668247904920e+04
-4.910366503398233908e+04
-4.914723631532167929e+04
-4.909300790234795568e+04
-4.905740315777656360e+04
-4.905723479905411659e+04
-4.905569806237055309e+04
-4.907812992938938987e+04
-4.909752804272562207e+04
-4.911126259895606199e+04
-4.915376063295341010e+04
-4.919219334150222858e+04
-4.906653093025648559e+04
-4.908010324040790147e+04
-4.913613774806583388e+04
-4.914322880593105947e+04
-4.911614324618209503e+04
-4.919146353996745893e+04
-4.917772977972024819e+04
-4.912503702482845983e+04
-4.911380468986947380e+04
-4.911555135853590036e+04
-4.914314106426510261e+04
-4.913817849475112598e+04
-4.917530583147551806e+04
-4.917018057055732788e+04
-4.915385346639902127e+04
-4.914799064525520225e+04
-4.916138401952035929e+04
-4.915241026051076915e+04
-4.917205300079993322e+04
-4.918697993024895550e+04
-4.916166257385563949e+04
-4.921560298401349428e+04
-4.922587255918759911e+04
-4.914658946456006379e+04
-4.916325994879010977e+04
-4.916368970684935630e+04
-4.914888958885421744e+04
-4.913678950120256195e+04
-4.921589978698464256e+04
-4.922760680783860880e+04
-4.925394526890531415e+04
-4.921243508602560178e+04
-4.917517471162816219e+04
-4.923950692657116451e+04
-4.918999137345231429e+04
-4.919483640824358008e+04
-4.921581361032627319e+04
-4.929327530456558452e+04
-4.921432625859163090e+04
-4.922313948471168987e+04
-4.923068217120394547e+04
-4.914971959522661928e+04
-4.920882943448798324e+04
-4.923551071674855484e+04
-4.930474688394756231e+04
-4.924878948732359277e+04
-4.943838044387823174e+04
-4.937021654112157557e+04
-4.931046344366360427e+04
-4.929706369393813657e+04
-4.932714266266973573e+04
-4.925921109851954679e+04
-4.918207279140619357e+04
-4.925432206996401510e+04
-4.922347254533589148e+04
-4.925209694487599336e+04
-4.921816182358359220e+04
-4.928954790029901051e+04
-4.930128431890440697e+04
-4.927258182772681175e+04
-4.930586996537801315e+04
-4.929152800610504346e+04
-4.932411792844349111e+04
-4.930453911281822366e+04
-4.930512463309992017e+04
-4.927651352799229062e+04
-4.928496239560623508e+04
-4.929416139589538216e+04
-4.927975206211647310e+04
-4.933531757984429714e+04
-4.926688585547168623e+04
-4.928831398130048910e+04
-4.927661386921632948e+04
-4.928554406061612826e+04
-4.929525645779981278e+04
-4.930491842094586900e+04
-4.935716459439690516e+04
-4.931237362641376239e+04
-4.929662841577141080e+04
-4.928502730265924038e+04
-4.933497203721244296e+04
-4.928585457249801402e+04
-4.929348299392548506e+04
-4.932674821366951801e+04
-4.927976052961884125e+04
-4.929319566574969940e+04
-4.927020796931625227e+04
-4.931932967159174586e+04
-4.933656816755995533e+04
-4.932894565662012610e+04
-4.934367383859043912e+04
-4.934303077519586805e+04
-4.932373048895398097e+04
-4.928467517017836508e+04
-4.932592944217644254e+04
-4.927221888868593669e+04
-4.931361631953751930e+04
-4.932568439718043373e+04
-4.930106326265665848e+04
-4.929071681751740107e+04
-4.929406473925997852e+04
-4.930171564647201012e+04
-4.929540838867204729e+04
-4.934557379907209543e+04
-4.935820102100050281e+04
-4.935354209220813937e+04
-4.933908690015024331e+04
-4.932629974482750549e+04
-4.936631841125511710e+04
-4.936177188820963056e+04
-4.937328834544144047e+04
-4.935908406112231751e+04
-4.938048865341873898e+04
-4.929013969040477241e+04
-4.931993709783282975e+04
-4.933554989761640172e+04
-4.935991615648583684e+04
-4.935380491876040469e+04
-4.939633043004069623e+04
-4.934473581158712477e+04
-4.935433828408370027e+04
-4.933267038283331931e+04
-4.934294694832454843e+04
-4.937782722373474098e+04
-4.936200731696183357e+04
-4.936255166589288274e+04
-4.940178730728471419e+04
-4.941761467908789200e+04
-4.937857511879419326e+04
-4.940956034392472793e+04
-4.938078433649633371e+04
-4.936556190491931193e+04
-4.934720372500595840e+04
-4.935787399292655027e+04
-4.937999614814163942e+04
-4.938894070246209594e+04
-4.937259949887782568e+04
-4.937722745858214330e+04
-4.939025763289476163e+04
-4.938325863733120059e+04
-4.938987994357214484e+04
-4.939739081712062034e+04
-4.940358546026280965e+04
-4.937080144645878318e+04
-4.939734607878861425e+04
-4.940058684939867089e+04
-4.940792726354086335e+04
-4.944188509805262584e+04
-4.950172152185480081e+04
-4.943620215402322356e+04
-4.943183597881839523e+04
-4.942811055819111061e+04
-4.937813751907586266e+04
-4.934814841917211015e+04
-4.937652304220677615e+04
-4.936011450982667884e+04
-4.944281322968936001e+04
-4.943547137364005175e+04
-4.943593018392410158e+04
-4.944403493949552649e+04
-4.946940443171208608e+04
-4.940311115292538307e+04
-4.942491109689639416e+04
-4.942470968586224626e+04
-4.939777048887618730e+04
-4.942569800307412515e+04
-4.938344550869426166e+04
-4.945296771126575914e+04
-4.945022367299829057e+04
-4.944678381979947881e+04
-4.944809450719930464e+04
-4.940721800681290915e+04
-4.944799496569995244e+04
-4.948870487023579335e+04
-4.963563054673485749e+04
-4.955861762580709183e+04
-4.971387423666484392e+04
-4.954336003561435791e+04
-4.950266906334743544e+04
-4.936982768286071951e+04
-4.940204865171416168e+04
-4.938927921983952547e+04
-4.943988029808551073e+04
-4.947953986811452341e+04
-4.944162289254923962e+04
-4.944767865511056880e+04
-4.944270372551686160e+04
-4.948801520038471790e+04
-4.945854629585687508e+04
-4.949990487197497714e+04
-4.955575225867926929e+04
-4.943537934890059842e+04
-4.943968929471205774e+04
-4.946574489959874336e+04
-4.948892662322165415e+04
-4.943809393866917526e+04
-4.948297729989948130e+04
-4.949354007168951648e+04
-4.945408052466005029e+04
-4.950270922301590326e+04
-4.949247985116556083e+04
-4.952593395396293636e+04
-4.956629289466269256e+04
-4.956531868143316387e+04
-4.947062513016592857e+04
-4.950423973313748866e+04
-4.954539896258684894e+04
-4.945119029796971154e+04
-4.951115830597450986e+04
-4.952770276595190080e+04
-4.948573488858881319e+04
-4.946338856136067625e+04
-4.950134881078573380e+04
-4.949604229507430864e+04
-4.952474269747424842e+04
-4.954101176247333206e+04
-4.953124132155164989e+04
-4.949562272678087174e+04
-4.947561360108713416e+04
-4.952024330343827023e+04
-4.952236207476663549e+04
-4.950933998301131942e+04
-4.957961043222207809e+04
-4.955841204736493819e+04
-4.946188595305145282e+04
-4.950538291282124555e+04
-4.950493557338778191e+04
-4.949308438389497314e+04
-4.950779446642083349e+04
-4.955815098472206591e+04
-4.952230531571096071e+04
-4.948684078252551990e+04
-4.952190446423721733e+04
-4.954074389646737836e+04
-4.952887268789244263e+04
-4.950673334464532672e+04
-4.958237350491384132e+04
-4.954476474947412498e+04
-4.953954903137069050e+04
-4.953576483386764448e+04
-4.952907102096074959e+04
-4.959260605002352531e+04
-4.951678088145967922e+04
-4.949496701032673445e+04
-4.953252851319318142e+04
-4.956656448491471383e+04
-4.944034962873812765e+04
-4.951819647210906987e+04
-4.955450391835538176e+04
-4.951300656548168627e+04
-4.953256876172524790e+04
-4.953602224993042182e+04
-4.955668694570856314e+04
-4.953163232702060486e+04
-4.955311161770657054e+04
-4.951386043576642260e+04
-4.951701578813237575e+04
-4.956469399606860679e+04
-4.959398439715471613e+04
-4.955578788686039479e+04
-4.956380616431802628e+04
-4.962218869403592544e+04
-4.949854279931676865e+04
-4.948788355137781036e+04
-4.954777742061060417e+04
-4.952674105610527477e+04
-4.953115935709789483e+04
-4.957181978087380412e+04
-4.956202837312925112e+04
-4.951281349210892222e+04
-4.956050263567328511e+04
-4.954393506907766277e+04
-4.956536042051004188e+04
-4.956453021940455801e+04
-4.958053141037045134e+04
-4.954828768806416338e+04
-4.956452681606540136e+04
-4.958659432761334756e+04
-4.957794383189497603e+04
-4.958761419050573750e+04
-4.959803962147708808e+04
-4.951507066146381840e+04
-4.952819336238918186e+04
-4.953911575182715751e+04
-4.955384369818414416e+04
-4.953276192453581461e+04
-4.958722698636649147e+04
-4.958783561609869503e+04
-4.960532214771317376e+04
-4.955563300075150619e+04
-4.958562978749284957e+04
-4.960261528626769723e+04
-4.953293847360157088e+04
-4.957825719099762500e+04
-4.958901139434760262e+04
-4.960090209066099487e+04
-4.961818159683250997e+04
-4.956105190323397983e+04
-4.955810033259711781e+04
-4.962841902435588418e+04
-4.959241582291139639e+04
-4.959181618703131244e+04
-4.981113433015657210e+04
-4.968363618836164824e+04
-4.961628028574244672e+04
-4.963589322405096755e+04
-4.961725466580977809e+04
-4.954169930087099783e+04
-4.961705301758225687e+04
-4.964158294403638138e+04
-4.962474055531190970e+04
-4.961629181821302336e+04
-4.960058532701266085e+04
-4.963111260317509732e+04
-4.965642740763752954e+04
-4.969057198105104908e+04
-4.968173613467974792e+04
-4.962374718110905815e+04
-4.965632557944040309e+04
-4.959046571233205759e+04
-4.958525962268550938e+04
-4.960980000297850347e+04
-4.964670537007517123e+04
-4.962507319351582555e+04
-4.965053880031326116e+04
-4.961700717002130841e+04
-4.965898249349625257e+04
-4.968211839152470930e+04
-4.961541394737945666e+04
-4.964213728309920407e+04
-4.967423596755845938e+04
-4.962457745728575537e+04
-4.962440788536216132e+04
-4.966429063437833975e+04
-4.967965504285006318e+04
-4.965585794448426168e+04
-4.965502648805249919e+04
-4.966226557754867827e+04
-4.970192131337835599e+04
-4.968101158332927298e+04
-4.968609482741360262e+04
-4.969841558419456123e+04
-4.971950591311302560e+04
-4.968653208788897609e+04
-4.965285088612489926e+04
-4.969356305008159688e+04
-4.970095035486167035e+04
-4.966594211810381239e+04
-4.969785192477741657e+04
-4.971129228513691487e+04
-4.968603977432243119e+04
-4.968964998286031187e+04
-4.968363430029182200e+04
-4.965333579352765810e+04
-4.969930575395537744e+04
-4.967302427993670426e+04
-4.967171953390012641e+04
-4.969741732948030403e+04
-4.971240876242305967e+04
-4.970219029527463863e+04
-4.971632332820046577e+04
-4.970392549229622091e+04
-4.971975889379808359e+04
-4.972077151963408687e+04
-4.968071152278702357e+04
-4.969385090559405944e+04
-4.973074001832260547e+04
-4.970534421682074026e+04
-4.967785683690785663e+04
-4.969212579020528938e+04
-4.969599372150879935e+04
-4.968540366339452157e+04
-4.973430207468372828e+04
-4.976311371436842455e+04
-4.976900653062321362e+04
-4.976062915841772337e+04
-4.973271500308764371e+04
-4.966793689306356100e+04
-4.971521425956779422e+04
-4.972024640085139981e+04
-4.973221539123864932e+04
-4.970158717506369430e+04
-4.972917990325826395e+04
-4.973552762622575392e+04
-4.974309100945656246e+04
-4.974259710687485494e+04
-4.980340691698633600e+04
-4.978759388937109907e+04
-4.969831790624183486e+04
-4.971719793865089014e+04
-4.968460837440895557e+04
-4.972165713721708744e+04
-4.977377368763362756e+04
-4.976211154739762424e+04
-4.972857519200762181e+04
-4.970686847278851201e+04
-4.968057529390475247e+04
-4.975589112545863463e+04
-4.976508871025236294e+04
-4.975602760179224424e+04
-4.977641966250723635e+04
-4.976977617831559473e+04
-4.961439191830745403e+04
-4.976528213670523110e+04
-4.982220287069379992e+04
-4.990790917970235023e+04
-4.982728635382843640e+04
-4.984236342676846107e+04
-4.983646359724683862e+04
-4.970909166896500392e+04
-4.978290525598602107e+04
-4.985156245585698343e+04
-4.990708751745757036e+04
-4.982369948748890602e+04
-4.990675781810406625e+04
-4.973265574575559731e+04
-4.976116536329849623e+04
-4.984614819490248192e+04
-4.970872263230462704e+04
-4.981040595028553071e+04
-4.976903983490529936e+04
-4.985671757086899015e+04
-4.970841552486884757e+04
-4.980430866837092617e+04
-4.979740573229228175e+04
-4.967401459562240052e+04
-4.952592412983786198e+04
-4.963386857531245914e+04
-4.975613057436918461e+04
-4.965384449366739864e+04
-5.000333985083765583e+04
-5.001619369853269018e+04
-4.994929326841045258e+04
-4.990937246865507768e+04
-4.979627965735658654e+04
-4.985106717968013254e+04
-4.979869664912061126e+04
-4.987111469878152275e+04
-4.992492983237549925e+04
-5.002741607668004144e+04
-4.982682234303607402e+04
-4.986483011511399673e+04
-4.985580344891359709e+04
-4.972075558236190409e+04
-4.974330662597739138e+04
-4.964527309494227666e+04
-4.980607537976792810e+04
-4.968061865973738895e+04
-4.960843549529071606e+04
-4.973793699489774735e+04
-4.974006745698813756e+04
-4.980076618529331608e+04
-4.985281773185829661e+04
-4.993731566898766323e+04
-4.985430071801015583e+04
-4.984172179402824986e+04
-4.962668324261216185e+04
-4.978735950073273852e+04
-4.997783845162882062e+04
-4.990681251982266258e+04
-5.022814001847883628e+04
-5.019722779492555128e+04
-5.024887424922717037e+04
-5.028596212497355737e+04
-5.049874864384288958e+04
-5.068000378408102551e+04
-5.083488735476972943e+04
-5.100237051816449093e+04
-5.110582059388513881e+04
-5.124102230098753353e+04
-5.115017968702495273e+04
-5.151863453871074307e+04
-5.147712730134139565e+04
-5.161067451118579629e+04
-5.172063538162968325e+04
-5.161751502383409388e+04
-5.176882128180925793e+04
-5.181439508035992912e+04
-5.185357532955018542e+04
-5.185778783782014943e+04
-5.223384538547970442e+04
-5.229330584560177522e+04
-5.248971074063464766e+04
-5.234686517520822963e+04
-5.251286251540510420e+04
-5.255759742838243255e+04
-5.242651661503216746e+04
-5.279176369407081074e+04
-5.324706627632590244e+04
-5.317404999908594618e+04
-5.320241368130616320e+04
-5.306251533509512956e+04
-5.270037434397564357e+04
-5.271553307413768198e+04
-5.305937361848665023e+04
-5.293154185748418240e+04
-5.308810510205538594e+04
-5.323763353947959695e+04
-5.307679167476829025e+04
-5.279425806137506879e+04
-5.301260501168352494e+04
-5.338852009091327636e+04
-5.324242869948595762e+04
-5.323493316311590752e+04
-5.326501233448889252e+04
-5.317995478101840126e+04
-5.290852760524799669e+04
-5.303541630729092140e+04
-5.302003135318985005e+04
-5.297130971924577170e+04
-5.295693292211140215e+04
-5.291851260768697830e+04
-5.296499848077399656e+04
-5.296858851831901848e+04
-5.300901926825178816e+04
-5.303077216750545631e+04
-5.307652762752908166e+04
-5.313324193488610763e+04
-5.331288429721507418e+04
-5.350957504776595306e+04
-5.343837109543754923e+04
-5.354047497840408323e+04
-5.353376704795099067e+04
-5.347860531116330822e+04
-5.347887339898855862e+04
-5.366514297718060698e+04
-5.354641646767151542e+04
-5.349427356913893163e+04
-5.362592717862353311e+04
-5.352865992509280477e+04
-5.355579539793665754e+04
-5.365028411635079101e+04
-5.367417597601635498e+04
-5.350138714291354700e+04
-5.348375104038525751e+04
-5.342088618983879132e+04
-5.345745271422058431e+04
-5.352292750240975147e+04
-5.353469288571975630e+04
-5.357656457280688483e+04
-5.348735623671736539e+04
-5.355926934712452203e+04
-5.346154058894990158e+04
-5.356658805721406679e+04
-5.359293665936707839e+04
-5.359895976677437284e+04
-5.346248589144301513e+04
-5.362189058554959047e+04
-5.361802850482821668e+04
-5.363779104329233087e+04
-5.380079885861954244e+04
-5.381161592419265799e+04
-5.376817811386397807e+04
-5.364396864465518593e+04
-5.355996674197124958e+04
-5.366114777017883898e+04
-5.370067111379779817e+04
-5.371846044975107361e+04
-5.391662896690228808e+04
-5.405954663128319953e+04
-5.378591278819998115e+04
-5.385395273701987026e+04
-5.373091487108792353e+04
-5.373322347423189058e+04
-5.374731687362882076e+04
-5.379497078193927155e+04
-5.374652975280652026e+04
-5.386951284734898945e+04
-5.380936244071534020e+04
-5.369462938954453421e+04
-5.380243082221224176e+04
-5.381635217714269675e+04
-5.382472020173789497e+04
-5.376008401409469661e+04
-5.382497790501370037e+04
-5.376914447755392030e+04
-5.375113345593216945e+04
-5.380748217929086968e+04
-5.382980677829861088e+04
-5.375578487525584205e+04
-5.383226837162615266e+04
-5.387857371400498232e+04
-5.378205546489996777e+04
-5.380879407885208639e+04
-5.386350702984627424e+04
-5.386254558405531134e+04
-5.382459289541635371e+04
-5.375302669743654405e+04
-5.391561289469688927e+04
-5.396176228126892966e+04
-5.383050616044610069e+04
-5.387384596099315240e+04
-5.406191409313410259e+04
-5.386663557070401293e+04
-5.383854665136052790e+04
-5.393656253149365511e+04
-5.389170416922568256e+04
-5.382639533638890862e+04
-5.389121840205442277e+04
-5.392880255437432788e+04
-5.394748150330193312e+04
-5.393807463147996896e+04
-5.394817914838852448e+04
-5.395666635219282762e+04
-5.396918301153209177e+04
-5.394868053335931472e+04
-5.399123105772111012e+04
-5.399139606037041813e+04
-5.399798152909271448e+04
-5.392919388419451570e+04
-5.392238868696890131e+04
-5.398615919051384117e+04
-5.397892615907621075e+04
-5.402303768788503658e+04
-5.400561134249276802e+04
-5.405515649596766161e+04
-5.405251091375070246e+04
-5.403515934867910983e+04
-5.401443863525392226e+04
-5.407425872250188695e+04
-5.401031781671453791e+04
-5.389997371165126970e+04
-5.399416836997372593e+04
-5.395803875937764678e+04
-5.395595811528968625e+04
-5.400838727634548559e+04
-5.403587029657747917e+04
-5.389092076897982042e+04
-5.392427245870760089e+04
-5.396493395267439337e+04
-5.389311196154069330e+04
-5.390227119076772942e+04
-5.407165008859655791e+04
-5.403899197353750060e+04
-5.400248531014666514e+04
-5.402827035711713688e+04
-5.406938154653966922e+04
-5.396742953206509992e+04
-5.398485890753989952e+04
-5.398039510936498846e+04
-5.406161188999570004e+04
-5.404679528453862440e+04
-5.402099013894025120e+04
-5.404345805858400126e+04
-5.401046340842446079e+04
-5.392288757286648615e+04
-5.394361304385905532e+04
-5.394925140084368468e+04
-5.404829967405919888e+04
-5.406057563078492240e+04
-5.405180290312675061e+04
-5.400759004497004207e+04
-5.414215524258094956e+04
-5.395683776134862273e+04
-5.393254219953891879e+04
-5.404241607887526334e+04
-5.402746263379004085e+04
-5.398343961522477184e+04
-5.401661553061423183e+04
-5.410939563703862223e+04
-5.402222106050850562e+04
-5.407297505849814479e+04
-5.401994351231380278e+04
-5.406677362728118896e+04
-5.408252625875754893e+04
-5.404535944538421609e+04
-5.404128322775154811e+04
-5.398815597763742699e+04
-5.410767993350488541e+04
-5.408810767996171489e+04
-5.403251400301774993e+04
-5.404905139710128424e+04
-5.405519581663418649e+04
-5.402413597491902328e+04
-5.395124161480059411e+04
-5.412615917823264317e+04
-5.413465322066192311e+04
-5.421235794073328725e+04
-5.399077575549309404e+04
-5.390569774657037487e+04
-5.402268909491486556e+04
-5.391596711799975310e+04
-5.411139914603787474e+04
-5.420036453101092775e+04
-5.434155750330655428e+04
-5.415067180715993891e+04
-5.417666917285605450e+04
-5.396486440254973422e+04
-5.409779042741014564e+04
-5.403856913188387261e+04
-5.376041748393627495e+04
-5.370058079168533732e+04
-5.340294354180915252e+04
-5.321776606922343490e+04
-5.325525446629603539e+04
-5.335777531879516755e+04
-5.347774584472311835e+04
-5.366504529509138956e+04
-5.364048038089445618e+04
-5.352281014073068945e+04
-5.361558132475548337e+04
-5.337711997344997508e+04
-5.331824817909730336e+04
-5.326148371736165427e+04
-5.293092794783977297e+04
-5.277431084994833509e+04
-5.271874471114166954e+04
-5.264927661648615322e+04
-5.249579277691940661e+04
-5.267173147176067869e+04
-5.270489169718816265e+04
-5.252179578487274557e+04
-5.244295968562703638e+04
-5.246910232931036444e+04
-5.243713694928149198e+04
-5.212573162237760698e+04
-5.226126784865125228e+04
-5.219441800766862434e+04
-5.203573882714397041e+04
-5.191091967147288233e+04
-5.200399016885047604e+04
-5.191662994269716728e+04
-5.188118645897997339e+04
-5.203709267081818689e+04
-5.204229898294554005e+04
-5.206215914726805204e+04
-5.207019931659944268e+04
-5.210142152374205034e+04
-5.204481460188617348e+04
-5.202950585952171241e+04
-5.201183552724988840e+04
-5.201971387130199582e+04
-5.195888765079448058e+04
-5.183856048088649550e+04
-5.186655920515362959e+04
-5.175023421567884361e+04
-5.171988171779410914e+04
-5.177241735636061640e+04
-5.186448179147235351e+04
-5.183401952235383214e+04
-5.194318645712406578e+04
-5.177825926731606887e+04
-5.168164643874917965e+04
-5.168834888138775568e+04
-5.163023720181638055e+04
-5.163875527708807203e+04
-5.175110631506032223e+04
-5.175008101542416262e+04
-5.161182262215285300e+04
-5.157739115736293024e+04
-5.150913092756738479e+04
-5.151815119042526203e+04
-5.160231125777455600e+04
-5.163003630856383097e+04
-5.164558982887560705e+04
-5.152977604102881742e+04
-5.149622752862609923e+04
-5.146313443507059128e+04
-5.148839471099497314e+04
-5.145237142291597411e+04
-5.147869747157627717e+04
-5.148210034394039394e+04
-5.136435304546586849e+04
-5.128431559256669425e+04
-5.139247355857453658e+04
-5.137674506256490713e+04
-5.126179513837331615e+04
-5.121163287804960419e+04
-5.133556679889931547e+04
-5.122220396530992730e+04
-5.127076523935393925e+04
-5.128313304570641776e+04
-5.135155260721896047e+04
-5.127061056611734966e+04
-5.121922669904982467e+04
-5.125460146744406666e+04
-5.129285821809323534e+04
-5.132838276757134008e+04
-5.128069887026275683e+04
-5.125334328117677796e+04
-5.117693353434145683e+04
-5.117444497191254777e+04
-5.119262461814216658e+04
-5.113060939295228309e+04
-5.120313989024503098e+04
-5.111498123895515164e+04
-5.108395695825176517e+04
-5.099562381041587651e+04
-5.101835410636317829e+04
-5.098649607267871033e+04
-5.102266411475822679e+04
-5.099415217575219867e+04
-5.095238230576700153e+04
-5.099537642522592796e+04
-5.100496778861389612e+04
-5.094183898683136795e+04
-5.092774243201108766e+04
-5.092731738215364021e+04
-5.097342536196180299e+04
-5.093447728291308886e+04
-5.097484002099873760e+04
-5.093992748303140252e+04
-5.088502299440756178e+04
-5.082706100511673139e+04
-5.080048105792253045e+04
-5.082812472718657227e+04
-5.083159295292250317e+04
-5.095436490780601889e+04
-5.084379499988415046e+04
-5.066478991242092889e+04
-5.075832463582981291e+04
-5.083249534811812919e+04
-5.077771427658514585e+04
-5.080704590880691103e+04
-5.116958237908246520e+04
-5.092766308780226245e+04
-5.074950984544389939e+04
-5.078152541708352510e+04
-5.080254036819384055e+04
-5.062195634394219815e+04
-5.062005565567924350e+04
-5.075396016861023963e+04
-5.064831282651962101e+04
-5.066789583589543327e+04
-5.055525819605066499e+04
-5.060638330157974997e+04
-5.062817324693781848e+04
-5.062631278703600401e+04
-5.063025981090323330e+04
-5.067762074384819425e+04
-5.075754372453004908e+04
-5.063485630313472939e+04
-5.061593953226042504e+04
-5.057293904902877694e+04
-5.063219527592509985e+04
-5.058543224300975999e+04
-5.053955943688320258e+04
-5.058745450787444133e+04
-5.053699796429377602e+04
-5.049806563135342003e+04
-5.047051391240401426e+04
-5.049443466534140316e+04
-5.055091844472489902e+04
-5.062700050064540847e+04
-5.054399085891481809e+04
-5.044864732537828968e+04
-5.056417207695020625e+04
-5.047649927237595693e+04
-5.038324696780669910e+04
-5.047763374433136778e+04
-5.053964394056194578e+04
-5.045992383280456124e+04
-5.041191558189631905e+04
-5.045370392611686839e+04
-5.040334720452656620e+04
-5.041513703810991865e+04
-5.038196760029229335e+04
-5.039887778220478503e+04
-5.040593424877080543e+04
-5.038937032442486088e+04
-5.035957173035378946e+04
-5.031055917252787185e+04
-5.035132877785294113e+04
-5.032204809140412544e+04
-5.029000940777311189e+04
-5.019098815215391369e+04
-5.016329959436913487e+04
-5.000106153535446356e+04
-4.983340196941559407e+04
-4.973030057730933913e+04
-4.972873587733603927e+04
-4.968297317821129400e+04
-4.973914991418237332e+04
-4.987717442181891238e+04
-4.994257109978651715e+04
-4.997413555205563898e+04
-5.005911822440368996e+04
-5.009872284650755319e+04
-5.009789750410555280e+04
-5.010645777793475281e+04
-5.016206527305616328e+04
-5.015505043820413994e+04
-5.012759731303982699e+04
-5.011706035881696153e+04
-5.021966938982946886e+04
-5.012449709775893280e+04
-5.008704846818537771e+04
-5.012982342806451197e+04
-5.009317585110655637e+04
-4.996501120401557273e+04
-4.998484561948528426e+04
-5.003317072881350032e+04
-5.001668357807036955e+04
-5.003848000456680165e+04
-5.002819685551057046e+04
-5.004590578254643333e+04
-4.998848273457895993e+04
-4.992635206192867190e+04
-4.999208302681425266e+04
-4.999539166592512629e+04
-5.000549530925443833e+04
-5.000576264230954257e+04
-5.000050456985976052e+04
-4.990272574840011657e+04
-4.992568483884457964e+04
-4.991556604882193642e+04
-4.988294658884553064e+04
-4.992984386887189612e+04
-4.991051475812855642e+04
-4.993630415044503025e+04
-4.984954447099494428e+04
-4.986947225184785202e+04
-4.989392668181269255e+04
-4.989053232159932668e+04
-4.985798766309064376e+04
-4.986972470444477221e+04
-4.987866890451343352e+04
-4.980277102073583956e+04
-4.982390250457606453e+04
-4.979005812608708220e+04
-4.981554773629890406e+04
-4.982882950700099173e+04
-4.977836626485860324e+04
-4.985865476190666959e+04
-4.978730619860365550e+04
-4.978998495933930099e+04
-4.973750990321708377e+04
-4.980211988253791060e+04
-4.971223192957520951e+04
-4.976574447091704496e+04
-4.981130516449452261e+04
-4.974457844795907295e+04
-4.977312031460295839e+04
-4.976999516828983906e+04
-4.981091553669634595e+04
-4.970887344738280808e+04
-4.976263129707088956e+04
-4.971719662335160683e+04
-4.962006225402296695e+04
-4.973693231810582802e+04
-4.974670228608737671e+04
-4.979256815227067273e+04
-4.983645122160985193e+04
-4.996854642036292353e+04
-4.973694852554728277e+04
-4.972579449123617087e+04
-4.974084430296353094e+04
-4.964430451359834115e+04
-4.968602202941056021e+04
-4.970818157975129725e+04
-4.970821896852300415e+04
-4.967946942600039620e+04
-4.970429027373998542e+04
-4.963358422695760964e+04
-4.966820152485987637e+04
-4.975629516364591836e+04
-4.963019428089317807e+04
-4.965276609028972598e+04
-4.959860556968719902e+04
-4.962422712108006090e+04
-4.958953058097695612e+04
-4.964198621401889250e+04
-4.964994964690598863e+04
-4.963279568025960180e+04
-4.966008801448554004e+04
-4.955645046348718461e+04
-4.955677224104677589e+04
-4.960622355392315512e+04
-4.965965525555943896e+04
-4.960532556422910420e+04
-4.957120392585169611e+04
-4.965536074797466426e+04
-4.949985149646014906e+04
-4.950907233089966758e+04
-4.950393119377746916e+04
-4.955730616690091847e+04
-4.949450567918103479e+04
-4.953453327777800587e+04
-4.955955375954596821e+04
-4.951360834391244134e+04
-4.958647575786401285e+04
-4.955123006948862167e+04
-4.959496566173536121e+04
-4.950095127526761644e+04
-4.950451612426887004e+04
-4.954336662156505918e+04
-4.952986083109370520e+04
-4.954555658686024253e+04
-4.958989881366557529e+04
-4.966041541951325780e+04
-4.947548958394368674e+04
-4.950098013321372855e+04
-4.947882749941010843e+04
-4.946462498247576150e+04
-4.945728679876598471e+04
-4.949159484103594150e+04
-4.950063316994887282e+04
-4.949466794325653609e+04
-4.948878492097066919e+04
-4.949569997210236033e+04
-4.952528608519791305e+04
-4.950884000551264035e+04
-4.948947189568840258e+04
-4.954293750994314905e+04
-4.945697470682142739e+04
-4.949107537457203580e+04
-4.949175716714020382e+04
-4.949044301322873798e+04
-4.945101035667685937e+04
-4.943221560482586210e+04
-4.945425316117542388e+04
-4.944703380880560144e+04
-4.945149436078743747e+04
-4.944213364348370669e+04
-4.952255412279931625e+04
-4.942831031025837001e+04
-4.941544590157978382e+04
-4.941186849393254670e+04
-4.940613433874294424e+04
-4.941871088448046066e+04
-4.941184847523308417e+04
-4.942062902547710837e+04
-4.944308198259687197e+04
-4.944974234909511870e+04
-4.936887385335620638e+04
-4.940255378197503160e+04
-4.939177100278502621e+04
-4.936822980008333980e+04
-4.934789965311323613e+04
-4.940507510286603792e+04
-4.943704686117846722e+04
-4.941617737564499112e+04
-4.939078307017181942e+04
-4.942256037683467730e+04
-4.944634201897174353e+04
-4.938267400635343802e+04
-4.939382605167308066e+04
-4.945225453584005299e+04
-4.943862834984407527e+04
-4.932671558884864498e+04
-4.936775335962254758e+04
-4.937344989017868647e+04
-4.932516683480417851e+04
-4.933636985581156478e+04
-4.938281263719865092e+04
-4.934697047805981856e+04
-4.938189521394228359e+04
-4.937601353876471694e+04
-4.934849812473544443e+04
-4.934933964793648920e+04
-4.934988671368263022e+04
-4.932345810620065458e+04
-4.932746903761768044e+04
-4.935539228894025291e+04
-4.938767813138154452e+04
-4.940855235702291247e+04
-4.931933769007137016e+04
-4.935829341155556904e+04
-4.932692435257857869e+04
-4.935259122784713691e+04
-4.933233631048526877e+04
-4.939032799594006792e+04
-4.933995617774358107e+04
-4.938000041017447802e+04
-4.933588727191626822e+04
-4.928411128388172801e+04
-4.929811587881624291e+04
-4.936660559884211398e+04
-4.933145821036542475e+04
-4.936267076598131098e+04
-4.960107526053839683e+04
-4.977139323055583372e+04
-4.982035337733395863e+04
-4.995112956121947354e+04
-4.993377234569923894e+04
-4.972958341330709663e+04
-4.950087784284787631e+04
-4.938268056279148004e+04
-4.928271274932161759e+04
-4.921563202504824585e+04
-4.926079551315239223e+04
-4.935270099691961514e+04
-4.939243063685076777e+04
-4.936715801198740519e+04
-4.954375366433997988e+04
-4.948871345190971624e+04
-4.943148935498052015e+04
-4.939695126335742680e+04
-4.940650112791065476e+04
-4.927765733260464185e+04
-4.926002365794591606e+04
-4.925803676904689200e+04
-4.930337407501201960e+04
-4.930655339293641009e+04
-4.926148781214563496e+04
-4.932661521759814059e+04
-4.934276244510673132e+04
-4.929749901230291289e+04
-4.930797577748112963e+04
-4.931560639529633045e+04
-4.934411211445251683e+04
-4.930296753651551262e+04
-4.931871574846860312e+04
-4.927816077577501710e+04
-4.935615404493913957e+04
-4.927050708708623279e+04
-4.931160614586980955e+04
-4.933438038084935397e+04
-4.935333697112740629e+04
-4.927536260594060877e+04
-4.926702870826588332e+04
-4.929491970962737832e+04
-4.923290011451601458e+04
-4.925290006063343753e+04
-4.932976316415485780e+04
-4.934048152721272345e+04
-4.930340259635986877e+04
-4.934677441778533830e+04
-4.934777167988652945e+04
-4.927608997327275574e+04
-4.929263062754960265e+04
-4.925036413603510300e+04
-4.922713718361607607e+04
-4.922196437202530797e+04
-4.926499458847741334e+04
-4.929256894522318908e+04
-4.930139647908593179e+04
-4.932905492849204893e+04
-4.929688942088577460e+04
-4.923766255452418409e+04
-4.923246002653129108e+04
-4.925096947147085302e+04
-4.922086364400396997e+04
-4.924101683410123223e+04
-4.928981710115737224e+04
-4.922507067467189336e+04
-4.925040070568880037e+04
-4.929036206775775645e+04
-4.928841992612212925e+04
-4.929301286048073962e+04
-4.929812250690886140e+04
-4.928506984629504586e+04
-4.929636925201785925e+04
-4.929644595797523652e+04
-4.931318212276419217e+04
-4.935358411747502396e+04
-4.933291581106407102e+04
-4.924703565390946460e+04
-4.930952873484567681e+04
-4.929744843838408997e+04
-4.929476722699453967e+04
-4.932003378274272109e+04
-4.934946649655788497e+04
-4.932911779005826975e+04
-4.926670711493442650e+04
-4.929038217829442146e+04
-4.927219796150122420e+04
-4.933070734335201996e+04
-4.928961734268569126e+04
-4.931906889722464985e+04
-4.931222008980307874e+04
-4.930094739254232263e+04
-4.930892349277632457e+04
-4.925242057204554294e+04
-4.932883194833153539e+04
-4.927956389173075877e+04
-4.926986755839558464e+04
-4.926662915466948471e+04
-4.930665503710327175e+04
-4.929787680991311936e+04
-4.929636958554567536e+04
-4.933404326831900835e+04
-4.920660328950552503e+04
-4.935290460742471623e+04
-4.928639297664131300e+04
-4.926021610714172130e+04
-4.929640192206858774e+04
-4.935277615644637990e+04
-4.924878107063525385e+04
-4.920074873604794993e+04
-4.927185952367763093e+04
-4.917850794866613433e+04
-4.927237055295722530e+04
-4.927773749781114020e+04
-4.930553778852052346e+04
-4.931647639389902179e+04
-4.932410741990640963e+04
-4.928932322508523066e+04
-4.920136301177297719e+04
-4.928267365340771357e+04
-4.930607033931841579e+04
-4.929143240970684565e+04
-4.928230657426198741e+04
-4.927252383659925545e+04
-4.935507951697846875e+04
-4.924647848298383178e+04
-4.934541098128698650e+04
-4.927506758279344649e+04
-4.949028966854017926e+04
-4.938155808061916468e+04
-4.933031675189024099e+04
-4.928691048676661012e+04
-4.932796619045553234e+04
-4.925850171217356547e+04
-4.914244650476733659e+04
-4.926596272245941509e+04
-4.928138586377646425e+04
-4.932396913742068864e+04
-4.923061607815171737e+04
-4.921034800580651063e+04
-4.928759966702721431e+04
-4.923602568616889766e+04
-4.923586289622687036e+04
-4.922121749857884424e+04
-4.946704030886349938e+04
-4.931828859173855744e+04
-4.926074389843145036e+04
-4.925735685547166941e+04
-4.927371770223340718e+04
-4.921434571981195768e+04
-4.921879663537564193e+04
-4.926564956424825505e+04
-4.915792533752656163e+04
-4.928305134633628768e+04
-4.920658985180173477e+04
-4.920642225152617175e+04
-4.926446203245798097e+04
-4.931332591928925103e+04
-4.918928859394262690e+04
-4.914074969637383765e+04
-4.917474716263901792e+04
-4.917358738430893573e+04
-4.923177235767801176e+04
-4.924049806981817528e+04
-4.925009946648016921e+04
-4.925114679434753634e+04
-4.920179196526007581e+04
-4.920314107534518553e+04
-4.921319112115370808e+04
-4.926766019670855167e+04
-4.925978525732936396e+04
-4.920890593055859790e+04
-4.914812827498262777e+04
-4.917116450829038513e+04
-4.920081753336885595e+04
-4.916689953103918378e+04
-4.920044652126878646e+04
-4.921973967817055382e+04
-4.921590357067496370e+04
-4.916411740260123770e+04
-4.918956621982500656e+04
-4.921394869602141262e+04
-4.919511140175323817e+04
-4.917161438648853073e+04
-4.917146032759031368e+04
-4.916561227454866457e+04
-4.916416075621696655e+04
-4.918107749637958477e+04
-4.920788651328138076e+04
-4.921162665624463989e+04
-4.919069187837191566e+04
-4.918586236048389401e+04
-4.919355069380045461e+04
-4.916141776697261957e+04
-4.916128857451175281e+04
-4.919390225111935433e+04
-4.916347306518943515e+04
-4.914979332052984682e+04
-4.918801475172057690e+04
-4.920213098501764034e+04
-4.915735810475186008e+04
-4.917109441721714393e+04
-4.919870623512129532e+04
-4.916756453851978586e+04
-4.913035636129281920e+04
-4.917734394209361199e+04
-4.918491112743042322e+04
-4.915758350759106543e+04
-4.914295113143525668e+04
-4.917386173116346617e+04
-4.916004715736121580e+04
-4.915916743482873426e+04
-4.914835005234473647e+04
-4.919909380735672312e+04
-4.919109428429906984e+04
-4.915985348256641737e+04
-4.912597646987556800e+04
-4.912660430058588099e+04
-4.913090031142051157e+04
-4.916865494244715228e+04
-4.917088581633472495e+04
-4.917659688752748480e+04
-4.921590817724777298e+04
-4.919316253193100420e+04
-4.913876505223347340e+04
-4.915043454566783475e+04
-4.921491246794105973e+04
-4.918144259668954328e+04
-4.916228762375711085e+04
-4.918275714422384772e+04
-4.921471812550846516e+04
-4.915349233108737826e+04
-4.917862582684702647e+04
-4.917691919671827782e+04
-4.917131882150563615e+04
-4.916827850256489910e+04
-4.921104321482111845e+04
-4.919116156672516809e+04
-4.921859424262943503e+04
-4.924539140034175216e+04
-4.920587701040811953e+04
-4.914574518018309755e+04
-4.914388325262203580e+04
-4.920972374955451232e+04
-4.918877849643943046e+04
-4.918030239421315491e+04
-4.921793556702722708e+04
-4.924168571794763557e+04
-4.914643180702817335e+04
-4.916846617543567118e+04
-4.918253004227469501e+04
-4.914717215372381906e+04
-4.917264937364981597e+04
-4.923593545655737398e+04
-4.925226735486851976e+04
-4.928671346382894990e+04
-4.937733620224286278e+04
-4.931274018409061682e+04
-4.926298258297899883e+04
-4.922108484670660255e+04
-4.926076394586380047e+04
-4.920588891353116924e+04
-4.921942689120555588e+04
-4.923579655541766260e+04
-4.922992278273287957e+04
-4.912093262921025598e+04
-4.909739217720893794e+04
-4.915213593363082327e+04
-4.917225312331439636e+04
-4.920533237716067379e+04
-4.922805019863358757e+04
-4.922438648448565800e+04
-4.918634839818286855e+04
-4.916716177523117949e+04
-4.917990734191792581e+04
-4.920081138629621273e+04
-4.920933993602182454e+04
-4.918320055067849898e+04
-4.925473055798465793e+04
-4.921104316919697885e+04
-4.921021762984790257e+04
-4.923774798651551100e+04
-4.923813528502964618e+04
-4.913650205435034877e+04
-4.917115456392135093e+04
-4.918743989146258536e+04
-4.915356666885464801e+04
-4.918730857223488420e+04
-4.921296464407994790e+04
-4.918893483878249390e+04
-4.915523654353814345e+04
-4.919506668120488757e+04
-4.923565842761265230e+04
-4.922645352781986730e+04
-4.920771586358848435e+04
-4.924534271954119322e+04
-4.918524960897734127e+04
-4.911870569586908823e+04
-4.917222019935234130e+04
-4.923438008357932267e+04
-4.915998188576254324e+04
-4.917235131959040882e+04
-4.916655091920601990e+04
-4.918375035948174627e+04
-4.916804348018555902e+04
-4.920666633110514522e+04
-4.921578847674799908e+04
-4.920296067655258958e+04
-4.912058755548975023e+04
-4.909236435094998888e+04
-4.911967428648873465e+04
-4.913129164301248238e+04
-4.916465272032672510e+04
-4.919454708227919036e+04
-4.916556133411319752e+04
-4.916166110465951351e+04
-4.915351697124511702e+04
-4.915957440632993530e+04
-4.915578884712696163e+04
-4.918683745091791934e+04
-4.913158873013382981e+04
-4.912853386386838247e+04
-4.911995821678444918e+04
-4.913137274054493173e+04
-4.914468714627166628e+04
-4.915543928818726999e+04
-4.911031383287373319e+04
-4.911404334205082705e+04
-4.912644467825090396e+04
-4.916145998884887376e+04
-4.916258116445533960e+04
-4.918826777503266203e+04
-4.917486437012543320e+04
-4.915964305081814382e+04
-4.908420052055080305e+04
-4.913706767267660325e+04
-4.915647209250460583e+04
-4.912779172405343706e+04
-4.913224958010062983e+04
-4.916672935025321203e+04
-4.913046336770745984e+04
-4.913415968266900018e+04
-4.917235688967028545e+04
-4.914957013043756888e+04
-4.913997207298758440e+04
-4.912233647949990700e+04
-4.910839927224839630e+04
-4.910174658102601097e+04
-4.913581894868833479e+04
-4.915442082637010026e+04
-4.915394215429563337e+04
-4.914667305161819240e+04
-4.913195956656863564e+04
-4.916866417558679677e+04
-4.914992788795962406e+04
-4.917446056215650606e+04
-4.915093509192956844e+04
-4.920752250881803047e+04
-4.912240670630450768e+04
-4.913146451739321492e+04
-4.913293994652523543e+04
-4.914272052931614598e+04
-4.912692411493373947e+04
-4.915717520616966067e+04
-4.917761986765071197e+04
-4.914629219614960311e+04
-4.920619693328710855e+04
-4.912014069202955579e+04
-4.917034109609982261e+04
-4.921088674898806494e+04
-4.919874251619820279e+04
-4.913680932844387280e+04
-4.919298382744114497e+04
-4.915050405917054741e+04
-4.908032481883886066e+04
-4.915302266670903919e+04
-4.916720120125431276e+04
-4.919158341679247678e+04
-4.922114032905210479e+04
-4.911609983833156002e+04
-4.913708917037447827e+04
-4.920233578298433713e+04
-4.922315286956816999e+04
-4.920738646912970580e+04
-4.942986968274036917e+04
-4.933310045894150244e+04
-4.920313585252648772e+04
-4.916761563180404482e+04
-4.915065463977128820e+04
-4.911987550420047774e+04
-4.910564295927175408e+04
-4.916140565993927885e+04
-4.916741595223930926e+04
-4.920267450516040844e+04
-4.913212073711361882e+04
-4.917359054178751830e+04
-4.921698853395754850e+04
-4.918966926559707645e+04
-4.920740241856826469e+04
-4.913964099059245200e+04
-4.920474479228043492e+04
-4.918024052051681792e+04
-4.915737191463963973e+04
-4.913541738903325313e+04
-4.922319026884782215e+04
-4.917520500029555842e+04
-4.914942373143445730e+04
-4.924363712917864905e+04
-4.919376243962133594e+04
-4.920844589815045038e+04
-4.918466096781553642e+04
-4.922927172715905181e+04
-4.923299749572686414e+04
-4.926994473101806216e+04
-4.928158108927050489e+04
-4.928158183462579473e+04
-4.923041224536081427e+04
-4.912280333754433377e+04
-4.917988884334385511e+04
-4.914059563594398787e+04
-4.914804411179185263e+04
-4.916745137650100514e+04
-4.920018240507257724e+04
-4.917641098688344209e+04
-4.916648609172162105e+04
-4.918621456818911975e+04
-4.917379197093476978e+04
-4.924058953175827628e+04
-4.918878458705016965e+04
-4.921292314426102530e+04
-4.920526490012331487e+04
-4.919151101900434151e+04
-4.914419629628254916e+04
-4.916591675338927598e+04
-4.915851256143033243e+04
-4.913172355938603141e+04
-4.919070773155043571e+04
-4.919637292447710206e+04
-4.920824605876244459e+04
-4.920172565652537742e+04
-4.921268748064018291e+04
-4.922208825079648523e+04
-4.917070828271508071e+04
-4.919552079833014432e+04
-4.922738439827370166e+04
-4.926884634480586828e+04
-4.917905000143431243e+04
-4.922733709557773545e+04
-4.923425267541962239e+04
-4.921066626175008423e+04
-4.918033557714657945e+04
-4.921442119687455852e+04
-4.927191103845513862e+04
-4.923024336381825560e+04
-4.926913837983839767e+04
-4.924221380903055251e+04
-4.925124218885731534e+04
-4.926250224238154624e+04
-4.925737315432593459e+04
-4.922847192706926580e+04
-4.927307936761054589e+04
-4.927834838174557808e+04
-4.915329728555012844e+04
-4.920600466103942745e+04
-4.922352325690072757e+04
-4.919441707662629051e+04
-4.920803309727201122e+04
-4.923713503168380703e+04
-4.923935816560906096e+04
-4.917682567899401329e+04
-4.920189039105905249e+04
-4.923618615504502668e+04
-4.924880190328416211e+04
-4.920640909601325984e+04
-4.926665136497871572e+04
-4.925658786861722183e+04
-4.913472710708998056e+04
-4.918027536681896891e+04
-4.918817568828796357e+04
-4.918566486617096234e+04
-4.918584145375039225e+04
-4.921851651488179050e+04
-4.920911089515926142e+04
-4.923465778861066792e+04
-4.924774048396792205e+04
-4.919147026992943574e+04
-4.923410689135007124e+04
-4.924588863570850663e+04
-4.922015133336329745e+04
-4.919074446829321823e+04
-4.923963455096921098e+04
-4.926851754753884597e+04
-4.920175156931931997e+04
-4.920743607229135523e+04
-4.921625288549828838e+04
-4.923873238988048251e+04
-4.920940908894073073e+04
-4.925440176305521163e+04
-4.925746924827155453e+04
-4.925733218177018716e+04
-4.925046589499642869e+04
-4.921123209410744312e+04
-4.919992813002988987e+04
-4.924599044111082185e+04
-4.926425371610825823e+04
-4.925434511873845622e+04
-4.926898997310387495e+04
-4.922451777369655611e+04
-4.924109568925892381e+04
-4.926263296333437029e+04
-4.927453446911865467e+04
-4.930872692847415601e+04
-4.943169660891305830e+04
-4.932965068632921611e+04
-4.926968941085079132e+04
-4.923841599920375302e+04
-4.922566801850488264e+04
-4.917322262040447094e+04
-4.921795809790092608e+04
-4.926435075468597643e+04
-4.924856573630067578e+04
-4.923084265923016937e+04
-4.920935159630979615e+04
-4.923133409493965155e+04
-4.923334225961368065e+04
-4.925686403981297190e+04
-4.927316577934757515e+04
-4.924766981959985424e+04
-4.926105686380705447e+04
-4.925096332709727722e+04
-4.931156683100925147e+04
-4.929230833759079542e+04
-4.929128295121836709e+04
-4.926622757955665293e+04
-4.925990913700880628e+04
-4.920991065942707064e+04
-4.920528868038912333e+04
-4.926058941554644116e+04
-4.925792482967427350e+04
-4.924384019557028660e+04
-4.924993381134363881e+04
-4.927966484250428766e+04
-4.928145511312737653e+04
-4.929159194556980219e+04
-4.931786802362232993e+04
-4.928924557440428907e+04
-4.927852905518219632e+04
-4.925309421567720710e+04
-4.930010850682178716e+04
-4.929847524094964319e+04
-4.929231378103035968e+04
-4.929479438772485446e+04
-4.928407119189597870e+04
-4.926193094381893025e+04
-4.928724565548927058e+04
-4.930561555836159096e+04
-4.930466815124490677e+04
-4.931510550242930913e+04
-4.924181291388021054e+04
-4.926079114861558628e+04
-4.928684344237641926e+04
-4.927340113092828688e+04
-4.926940858364235464e+04
-4.925713136792933801e+04
-4.926379200396034867e+04
-4.932974900281464215e+04
-4.930551345449744258e+04
-4.926585373683675425e+04
-4.940443467938302638e+04
-4.934235198175506957e+04
-4.919349913539757836e+04
-4.920458483670085116e+04
-4.930636166748777032e+04
-4.933208672343045328e+04
-4.916283508816166432e+04
-4.923051962870646821e+04
-4.922101063392969081e+04
-4.921915919287895667e+04
-4.912508815635958308e+04
-4.921865262195516698e+04
-4.927747291506783222e+04
-4.935909067619800044e+04
-4.918669499475190241e+04
-4.909048990271385992e+04
-4.931713612883042515e+04
-4.908331141635119275e+04
-4.899232063322683098e+04
-4.913543247141188476e+04
-4.908629374235376599e+04
-4.930433037509681162e+04
-4.930163615969600505e+04
-4.940156314980272145e+04
-4.925528966611995565e+04
-4.931455769606924150e+04
-4.872017746463399089e+04
-4.923476255381636292e+04
-4.905751964670202142e+04
-4.899877609973517974e+04
-4.938613888984154619e+04
-4.948951503243987827e+04
-4.921266810692359286e+04
-4.904579222726962325e+04
-4.964819045805329370e+04
-4.966831395571377652e+04
-4.980928591161816439e+04
-4.955291183148601704e+04
-5.034361056342047232e+04
-5.020668317152857344e+04
-4.968666675404656417e+04
-5.007423205819325813e+04
-5.072162559777487331e+04
-5.046420727622137929e+04
-5.025358019062381209e+04
-5.076708194929219462e+04
-5.080211097779687407e+04
-5.064562591680980404e+04
-5.091198211544024525e+04
-5.106670879479309951e+04
-5.121941497927518503e+04
-5.140353366867286240e+04
-5.166400353545304097e+04
-5.141915838125273149e+04
-5.178347222032074933e+04
-5.203036668127455050e+04
-5.195060274819849292e+04
-5.194593132510736177e+04
-5.218994385563314427e+04
-5.236889561733748997e+04
-5.241138590692770231e+04
-5.231486475782401249e+04
-5.243535459788349544e+04
-5.274359762782252801e+04
-5.267120015185712691e+04
-5.249089966793712665e+04
-5.293489001417433610e+04
-5.292709115780131106e+04
-5.281294090759153187e+04
-5.287334294850878359e+04
-5.305123100274699391e+04
-5.298131598945149017e+04
-5.314183988273250725e+04
-5.314912828619662469e+04
-5.302950866589685756e+04
-5.307376760286605713e+04
-5.304902289789045608e+04
-5.304591944977908861e+04
-5.307306052328481019e+04
-5.322075203919021442e+04
-5.319753517319333332e+04
-5.325444077554927208e+04
-5.320881413865219656e+04
-5.326933812787381612e+04
-5.332035510051624442e+04
-5.347659758536653680e+04
-5.341980077451679972e+04
-5.336793207075326791e+04
-5.339026620895467931e+04
-5.335646638144295866e+04
-5.325674553407941130e+04
-5.331186660122194007e+04
-5.348972761081864883e+04
-5.348347888425421843e+04
-5.348447822256310610e+04
-5.346194014706143935e+04
-5.352952991607647709e+04
-5.344919427504282066e+04
-5.340384153330046684e+04
-5.341270909776654298e+04
-5.347152634084659076e+04
-5.347056391756924859e+04
-5.345666350585102191e+04
-5.346248073428524367e+04
-5.354626107457245234e+04
-5.352126422217718209e+04
-5.348425442420363106e+04
-5.353714493534951180e+04
-5.358221132930782187e+04
-5.352953673067264754e+04
-5.365025416549487272e+04
-5.357830944652600738e+04
-5.355781054116887390e+04
-5.365106654164977954e+04
-5.359139555508013291e+04
-5.348246847894871462e+04
-5.362718578773574700e+04
-5.371905216272461257e+04
-5.357120819120909437e+04
-5.365403769043759530e+04
-5.372339677008896251e+04
-5.369017554780143109e+04
-5.364895982750944677e+04
-5.372745861694092309e+04
-5.377325893497285870e+04
-5.373854292792595515e+04
-5.377962516752067313e+04
-5.371032959890329221e+04
-5.380184048720489227e+04
-5.377957346451000194e+04
-5.379308193263947032e+04
-5.382082317742265877e+04
-5.390461964181636722e+04
-5.386583936880578403e+04
-5.384420551206376695e+04
-5.395133645803898253e+04
-5.396344366795031237e+04
-5.397540320478435024e+04
-5.390749621191351616e+04
-5.395193161132829846e+04
-5.394174008500188938e+04
-5.384678717618734663e+04
-5.395220113984642376e+04
-5.398800120663292182e+04
-5.403896533558081865e+04
-5.401852060279688885e+04
-5.408346739830104343e+04
-5.398242115085385740e+04
-5.406914389285015204e+04
-5.407874634706252255e+04
-5.402244877877595718e+04
-5.410740366385353263e+04
-5.408967883075248392e+04
-5.410305238316694158e+04
-5.402116994163284107e+04
-5.410611937329927605e+04
-5.411123169351656543e+04
-5.419721124104165210e+04
-5.409871766801031481e+04
-5.413525682013401820e+04
-5.417004215501109138e+04
-5.413584772788651026e+04
-5.411574624288045015e+04
-5.421497402550878905e+04
-5.424101682443521713e+04
-5.423160282890324743e+04
-5.420472496053742361e+04
-5.425267167507892009e+04
-5.424252275034465129e+04
-5.432611927297913644e+04
-5.429751318293259828e+04
-5.435927435133742983e+04
-5.435290016385514173e+04
-5.433241439367089333e+04
-5.427737976187075401e+04
-5.434272990978099551e+04
-5.440000306330609601e+04
-5.433113924677239265e+04
-5.440893755614986003e+04
-5.441920915541440627e+04
-5.438626453335362748e+04
-5.432177194673206395e+04
-5.443302450870662869e+04
-5.439745137683839857e+04
-5.438185236885995982e+04
-5.450413660320019699e+04
-5.452080477682115452e+04
-5.450302766694808815e+04
-5.446560467136502120e+04
-5.452511768146085524e+04
-5.443970891143094923e+04
-5.449061206679949100e+04
-5.452706795703221724e+04
-5.457697567166524095e+04
-5.458405925178608595e+04
-5.448343016941039241e+04
-5.453969594485244306e+04
-5.456354694947221287e+04
-5.462817734655996901e+04
-5.462497418934433517e+04
-5.486573059161718265e+04
-5.479407873349887814e+04
-5.465470253489792958e+04
-5.466042636977964139e+04
-5.465068026206216746e+04
-5.454838794177364616e+04
-5.456691434874947299e+04
-5.472043497202581057e+04
-5.465506588111590827e+04
-5.466016477421794843e+04
-5.461689731369452056e+04
-5.465743929833092261e+04
-5.465556946493958822e+04
-5.463366580571476516e+04
-5.465235827742760739e+04
-5.475411684158678690e+04
-5.464751708133747888e+04
-5.458877736495328281e+04
-5.464506193948203145e+04
-5.464198004118146491e+04
-5.457276255183047033e+04
-5.467464582721434272e+04
-5.461199762273019587e+04
-5.452958011695322784e+04
-5.447658416967737867e+04
-5.446516355539626238e+04
-5.439458783871796186e+04
-5.439752982778947626e+04
-5.440488478899378242e+04
-5.434410947180596122e+04
-5.426222645040087809e+04
-5.423337513710498752e+04
-5.425073260371953074e+04
-5.421412739938605955e+04
-5.417260520411909965e+04
-5.407609824759346520e+04
-5.403627453866422729e+04
-5.398727591469987965e+04
-5.389429870349138218e+04
-5.388710704081207950e+04
-5.392465863229250681e+04
-5.376895599587448669e+04
-5.362081144408205000e+04
-5.359209724493485555e+04
-5.349561961540370248e+04
-5.344907714017371472e+04
-5.346172710312872368e+04
-5.336807016743048734e+04
-5.324802573351798492e+04
-5.315362033244559279e+04
-5.309610654633248487e+04
-5.303282334235805320e+04
-5.299773571757680475e+04
-5.296285242802467110e+04
-5.293492171183229220e+04
-5.280669408547809871e+04
-5.282158330813956127e+04
-5.295042223644554178e+04
-5.296863063610434619e+04
-5.304732443741457246e+04
-5.314566845022818597e+04
-5.314686883505053265e+04
-5.314755266800538811e+04
-5.322683145243080071e+04
-5.327637920617951022e+04
-5.331161972352818702e+04
-5.334177316725163837e+04
-5.331315502123194892e+04
-5.337856570133175410e+04
-5.334186631841497729e+04
-5.337660603809491295e+04
-5.344615085369722510e+04
-5.340471801282849628e+04
-5.330930274825492234e+04
-5.325257122260238248e+04
-5.319585218148651620e+04
-5.313767390423735196e+04
-5.316268555137878138e+04
-5.310936630135918676e+04
-5.312066937167679862e+04
-5.308314853498045704e+04
-5.298072179305442114e+04
-5.297700284819752414e+04
-5.294868289289277891e+04
-5.290415051723372744e+04
-5.289598138924284285e+04
-5.293056741040694033e+04
-5.288627002937129873e+04
-5.287192724189918954e+04
-5.287006886684735946e+04
-5.283489220944765111e+04
-5.276263891542933561e+04
-5.265706551902899082e+04
-5.264202176060632337e+04
-5.260594216739300464e+04
-5.257501712115180271e+04
-5.257494060409683880e+04
-5.259031264474541240e+04
-5.258951204576814780e+04
-5.256359200397515815e+04
-5.252363429354252730e+04
-5.254314944835211645e+04
-5.252518126487856352e+04
-5.247974732312787091e+04
-5.244457613239841157e+04
-5.243272946037240035e+04
-5.242064832055942679e+04
-5.246017340658316243e+04
-5.246355050638345710e+04
-5.243132589880569139e+04
-5.247653487739685806e+04
-5.240239042327443167e+04
-5.239571122502857907e+04
-5.237299759445895324e+04
-5.241214293743602320e+04
-5.235354182639836654e+04
-5.234457505820044025e+04
-5.230675994746456126e+04
-5.225849360866579082e+04
-5.220900950381997973e+04
-5.224157365270743321e+04
-5.230981099685089430e+04
-5.224169294319104665e+04
-5.214012934250156832e+04
-5.217079263016236655e+04
-5.217042051948252629e+04
-5.213847361698182067e+04
-5.213345997935796186e+04
-5.233276263825369097e+04
-5.231494356216606684e+04
-5.213623439960280666e+04
-5.203227645080551156e+04
-5.201506018653956562e+04
-5.199304404391740536e+04
-5.194247265327686910e+04
-5.204165589778001595e+04
-5.205687462628084177e+04
-5.211394496801198693e+04
-5.196774086321789946e+04
-5.187164167600037035e+04
-5.188786690275440196e+04
-5.195724290187648148e+04
-5.191007772620389733e+04
-5.181547625304298708e+04
-5.189401452360404073e+04
-5.189665852353661467e+04
-5.178215222449253633e+04
-5.177955308798682381e+04
-5.186358096285766078e+04
-5.185080893864938116e+04
-5.177585606623619969e+04
-5.182203085219580680e+04
-5.177278737403434206e+04
-5.180811818565450085e+04
-5.182642409663202125e+04
-5.181021442651312827e+04
-5.182435950638197392e+04
-5.178755630990734062e+04
-5.178626558517288504e+04
-5.180450168444482551e+04
-5.181253425965616043e+04
-5.179069471008452092e+04
-5.184081287145656097e+04
-5.183263905409926519e+04
-5.167961182690622081e+04
-5.174848190636544314e+04
-5.172349968526562589e+04
-5.175083984041764779e+04
-5.170123278076393035e+04
-5.176604523322096793e+04
-5.170781815328012453e+04
-5.170274449597427156e+04
-5.172487335927046661e+04
-5.169029152080366475e+04
-5.174332978304295830e+04
-5.173630054957351240e+04
-5.173988522861859383e+04
-5.162881055319962616e+04
-5.166016456699252740e+04
-5.161992150641075568e+04
-5.159308388518152060e+04
-5.161980756953034870e+04
-5.162553267536322528e+04
-5.162924727788958990e+04
-5.162371743029644131e+04
-5.163481405179228022e+04
-5.163383143503131578e+04
-5.166168508538377500e+04
-5.162552829114094493e+04
-5.161411537339647475e+04
-5.163534801831005461e+04
-5.157053873734718945e+04
-5.156811710379056603e+04
-5.160152384312859795e+04
-5.157055970773563604e+04
-5.157163651300297352e+04
-5.156563277417406061e+04
-5.156153573544591927e+04
-5.159562740621175908e+04
-5.159310331552907883e+04
-5.153651310912163171e+04
-5.157675958450626786e+04
-5.159488098040677141e+04
-5.145574733722124802e+04
-5.148027722818857728e+04
-5.150020924835588085e+04
-5.151759279137424164e+04
-5.146607807874825812e+04
-5.151206270593035151e+04
-5.150197259102942189e+04
-5.151380754251300823e+04
-5.148026367353042588e+04
-5.148372803746855789e+04
-5.151863793708020967e+04
-5.150431286654865835e+04
-5.145032784900812112e+04
-5.143959953615910490e+04
-5.144693071947396675e+04
-5.142603852499507047e+04
-5.142086519477295951e+04
-5.147266943070640264e+04
-5.144585970404410909e+04
-5.141787671860495175e+04
-5.140859605694717175e+04
-5.140188143930883234e+04
-5.139981815196227399e+04
-5.142343941377782176e+04
-5.143748269394803356e+04
-5.142412974288660189e+04
-5.141546694896613189e+04
-5.139923934302949783e+04
-5.140428882461586909e+04
-5.143620169015203282e+04
-5.146084451613848796e+04
-5.144661582880024798e+04
-5.139586793105577090e+04
-5.139849437039217446e+04
-5.139014953008776502e+04
-5.134465386878569552e+04
-5.135761505850796675e+04
-5.140339803534213570e+04
-5.138580556551298650e+04
-5.132255628140679619e+04
-5.129263500767956430e+04
-5.130524365816830687e+04
-5.130221090433739300e+04
-5.131478825325204525e+04
-5.132198125324123976e+04
-5.137836851919982291e+04
-5.136048662262009020e+04
-5.135138615374003712e+04
-5.132623148736996518e+04
-5.132452712767593766e+04
-5.135438333071533998e+04
-5.132674308380463481e+04
-5.130217283139009669e+04
-5.135318308815130877e+04
-5.141856778424234653e+04
-5.132063835194594139e+04
-5.132599856217316847e+04
-5.136671657118005533e+04
-5.123355844509334565e+04
-5.122897067662688642e+04
-5.129194873329818074e+04
-5.129249917072248354e+04
-5.127487470075827150e+04
-5.139971604308242240e+04
-5.129101583549260249e+04
-5.122579076562144473e+04
-5.124585684553983447e+04
-5.121876533318686415e+04
-5.119851580426960572e+04
-5.121876892761797353e+04
-5.123883755376393674e+04
-5.124565371587799018e+04
-5.123450672626933374e+04
-5.121393662054638116e+04
-5.128323430944030406e+04
-5.130396627346453897e+04
-5.117225276806254988e+04
-5.119234055067382724e+04
-5.119865867695452471e+04
-5.118440394968539476e+04
-5.116240829101471172e+04
-5.123981265798573440e+04
-5.125507386864422733e+04
-5.120472781286411191e+04
-5.114490554712516314e+04
-5.114629651529290277e+04
-5.122311096321591322e+04
-5.119414322895654186e+04
-5.120983138094843889e+04
-5.120530264181870007e+04
-5.117750857455723599e+04
-5.115764857974442566e+04
-5.114648931967165845e+04
-5.117661727033100033e+04
-5.121103993122974498e+04
-5.122871434905385104e+04
-5.107766821731862728e+04
-5.107565539912992244e+04
-5.107764085004512162e+04
-5.109875795426190598e+04
-5.108495256398431229e+04
-5.113509645058753085e+04
-5.116184789387093770e+04
-5.113029669602641661e+04
-5.109394876035496418e+04
-5.107478294496148010e+04
-5.112039927347488992e+04
-5.110439973943270888e+04
-5.110791143763693253e+04
-5.109929355047794525e+04
-5.109988247908725316e+04
-5.110373269164572412e+04
-5.109899582028579607e+04
-5.111739946517455246e+04
-5.108213241996843135e+04
-5.111424037883978599e+04
-5.115519564176014683e+04
-5.111715006080461899e+04
-5.107242818427974271e+04
-5.111458537412431178e+04
-5.113315940997323924e+04
-5.102179571114083956e+04
-5.105763197520337417e+04
-5.108115751009083760e+04
-5.111956566580381332e+04
-5.102809985275730287e+04
-5.101276278782448935e+04
-5.102299229738324357e+04
-5.104680787282486563e+04
-5.097938443506592012e+04
-5.099937239141199825e+04
-5.104574436824017903e+04
-5.104263214247148426e+04
-5.100005312615678122e+04
-5.098411319708918745e+04
-5.099880357099286630e+04
-5.102825198990137869e+04
-5.099016721032583155e+04
-5.099177674800135719e+04
-5.102957937964027224e+04
-5.100909267720339994e+04
-5.098572656288653525e+04
-5.097299277197875927e+04
-5.098643208239019441e+04
-5.097747131344447553e+04
-5.099390216137371317e+04
-5.096820299647706270e+04
-5.095995391491028568e+04
-5.096280752618026600e+04
-5.098971681765120593e+04
-5.098517974692216376e+04
-5.094137596658977418e+04
-5.101425858950582187e+04
-5.102185499397823878e+04
-5.090635466135333263e+04
-5.092724138622295141e+04
-5.097141501503396285e+04
-5.092539138066323358e+04
-5.088549290480009222e+04
-5.096470556008043059e+04
-5.087826107697509724e+04
-5.088472690137396421e+04
-5.089474783979986387e+04
-5.086001739203103352e+04
-5.088026232966317184e+04
-5.091851593082646286e+04
-5.092473544414406206e+04
-5.089503206149136531e+04
-5.092048318891965027e+04
-5.091740602515693172e+04
-5.090980079885989835e+04
-5.089563701033169491e+04
-5.087469932750207954e+04
-5.095930688726237713e+04
-5.090547170757248387e+04
-5.094055032319299789e+04
-5.086469589967408683e+04
-5.085635963596073270e+04
-5.090835068247409072e+04
-5.090498889945864357e+04
-5.088952942383045593e+04
-5.095485962927372748e+04
-5.106825780846179987e+04
-5.085424543052025547e+04
-5.088881609541991202e+04
-5.086661009484909300e+04
-5.087803565785988758e+04
-5.081266364470319968e+04
-5.083601393506570457e+04
-5.084827577334424132e+04
-5.082840716992934176e+04
-5.081880203186585277e+04
-5.077154672395089437e+04
-5.085321102336329204e+04
-5.084077301265791903e+04
-5.083240224612189195e+04
-5.077737539162953180e+04
-5.080322131856835767e+04
-5.084833905392501765e+04
-5.078251802154722100e+04
-5.084112462496280205e+04
-5.087404845309301163e+04
-5.081695936178616830e+04
-5.078167102797934058e+04
-5.081411937880648475e+04
-5.074897527399810497e+04
-5.072025820424018457e+04
-5.082171596523848712e+04
-5.076012718349847273e+04
-5.076697234051479609e+04
-5.077208139184800530e+04
-5.080163046669947653e+04
-5.076675551416022063e+04
-5.077121347106934263e+04
-5.079187228146511916e+04
-5.079163010447728448e+04
-5.075505234976463544e+04
-5.069441878273843759e+04
-5.071731693131830252e+04
-5.069958595428436092e+04
-5.070178504960209102e+04
-5.072372541171217745e+04
-5.073896240642756311e+04
-5.073809102324029664e+04
-5.072228607949938305e+04
-5.072561441241859575e+04
-5.071104094395862194e+04
-5.073143851462992461e+04
-5.073499572031032585e+04
-5.071862204306716740e+04
-5.071202060763730697e+04
-5.070044638906700129e+04
-5.075075946812287293e+04
-5.077118421337087057e+04
-5.076175660603845608e+04
-5.073714967375755805e+04
-5.073390688962882996e+04
-5.066158950217901292e+04
-5.062811888084957172e+04
-5.067687041923736251e+04
-5.068716627895878628e+04
-5.070146774034586997e+04
-5.068458745596776862e+04
-5.066924166094839165e+04
-5.066073614092891512e+04
-5.066917893819295568e+04
-5.064905364262491639e+04
-5.067031038359086961e+04
-5.068691792313828773e+04
-5.065592975301099068e+04
-5.064185687659388350e+04
-5.065365259199717548e+04
-5.065211366718244972e+04
-5.065373976350700104e+04
-5.066322601473761461e+04
-5.064050013899460464e+04
-5.064419639058953908e+04
-5.067352838645171869e+04
-5.065007945731087966e+04
-5.065192574908412644e+04
-5.067105937854171498e+04
-5.062552529911915917e+04
-5.061983850723951036e+04
-5.066500286128210428e+04
-5.062687643811340968e+04
-5.065507931653448031e+04
-5.066134881575780310e+04
-5.060634563302154857e+04
-5.059974724387306196e+04
-5.064195842617037124e+04
-5.058845046473753609e+04
-5.061718859731189877e+04
-5.063573484935780289e+04
-5.059844651875949785e+04
-5.059912102831137599e+04
-5.060167437934577902e+04
-5.058918560442207672e+04
-5.058852498199085676e+04
-5.059798459891998209e+04
-5.059382011320033780e+04
-5.058982353025222255e+04
-5.057821829367642931e+04
-5.060193046876144945e+04
-5.061624784338889731e+04
-5.055950583805614588e+04
-5.057666522878619435e+04
-5.061598884112173982e+04
-5.058019680310880358e+04
-5.055443489876546664e+04
-5.062805789920206007e+04
-5.061446561269839003e+04
-5.050701974805653299e+04
-5.056462972354745580e+04
-5.054181166308670072e+04
-5.052582733601673681e+04
-5.052290786160092102e+04
-5.056713034959515790e+04
-5.053333633234206354e+04
-5.057603020393637416e+04
-5.053562600730139820e+04
-5.055154036239593552e+04
-5.059302140392441652e+04
-5.055266672323158127e+04
-5.059304055016522761e+04
-5.052547051866136462e+04
-5.052882513098201161e+04
-5.057258350217019324e+04
-5.052715599201693840e+04
-5.064199370646497118e+04
-5.089060443018268415e+04
-5.088533528046199353e+04
-5.081001441200639238e+04
-5.099216777027669013e+04
-5.068988480788208108e+04
-5.056135339713111171e+04
-5.053375805406008294e+04
-5.052603316613609786e+04
-5.049544056859498960e+04
-5.058851300131279277e+04
-5.051563234449598531e+04
-5.053453352395314869e+04
-5.052272974096419784e+04
-5.041608881554316758e+04
-5.050911321678508102e+04
-5.052607354247356852e+04
-5.050931424185630749e+04
-5.053339469918268151e+04
-5.049939321908299462e+04
-5.052136904667082126e+04
-5.054643632043094840e+04
-5.052273175257969706e+04
-5.051118478553983732e+04
-5.055011714977663360e+04
-5.048360641777978162e+04
-5.046307684939121100e+04
-5.050672087110033317e+04
-5.049800360235444532e+04
-5.052685900258972106e+04
-5.049496344349560241e+04
-5.049989813497847354e+04
-5.050338006915745791e+04
-5.053058877001721703e+04
-5.053787186144537554e+04
-5.053427706150861195e+04
-5.058398711855410511e+04
-5.052454670756633277e+04
-5.044864287659087859e+04
-5.044493793930839456e+04
-5.047113339945048938e+04
-5.048185863612932735e+04
-5.047290274360457988e+04
-5.051881194331048755e+04
-5.049853489846400043e+04
-5.054227250479986105e+04
-5.043843569111430406e+04
-5.046478904746876651e+04
-5.051549576290013647e+04
-5.049179957553400891e+04
-5.048235409331411211e+04
-5.049568327554301504e+04
-5.052595134244843211e+04
-5.044783331839266611e+04
-5.045540505243556981e+04
-5.042141088034051791e+04
-5.045033507624337653e+04
-5.044665019472179847e+04
-5.044675344465509988e+04
-5.048130253164092574e+04
-5.046048911411243171e+04
-5.049555393425589864e+04
-5.047189314494896826e+04
-5.048024943231328507e+04
-5.046072600394846086e+04
-5.046797521931387018e+04
-5.049122976674870733e+04
-5.045494206832288182e+04
-5.047301283570395753e+04
-5.047865531411304255e+04
-5.052286662648532365e+04
-5.044620213153121585e+04
-5.047116071761622152e+04
-5.046868428766052239e+04
-5.044244772077666130e+04
-5.043362143247140193e+04
-5.042193711839952448e+04
-5.042401444974865444e+04
-5.043672576227075479e+04
-5.045439996926686581e+04
-5.043916596579911857e+04
-5.048481774302397389e+04
-5.047322731536867650e+04
-5.040504976302852447e+04
-5.041719888119828829e+04
-5.041123611427652213e+04
-5.041225217812355550e+04
-5.045218969722108159e+04
-5.048136966261149064e+04
-5.044113539584833052e+04
-5.047494637703809713e+04
-5.046721693888146547e+04
-5.043225404678092309e+04
-5.046352232568992622e+04
-5.049494881788489147e+04
-5.043409896380252758e+04
-5.043933753422376321e+04
-5.044432107476432429e+04
-5.043105305021446111e+04
-5.043795867284463020e+04
-5.048197359582540230e+04
-5.048441804951937957e+04
-5.046380602124412690e+04
-5.045529677752414864e+04
-5.044246584710787283e+04
-5.045074013760449452e+04
-5.043405796850933984e+04
-5.045430146588273783e+04
-5.042735524202696979e+04
-5.044760506412516406e+04
-5.044085611494461773e+04
-5.042759966761519900e+04
-5.043767867314202886e+04
-5.045760120451438706e+04
-5.043434871203942748e+04
-5.044418377382167819e+04
-5.047831058607883460e+04
-5.044603138260705600e+04
-5.046897300017740054e+04
-5.044929293507894181e+04
-5.043301923321450158e+04
-5.044234295130123792e+04
-5.045047171966332826e+04
-5.046892642715637339e+04
-5.045495729506146745e+04
-5.044500882245437970e+04
-5.049936620616420259e+04
-5.055676287734104699e+04
-5.047514801839141001e+04
-5.057702986546732427e+04
-5.061988337720064010e+04
-5.045962730604203534e+04
-5.041797221815851663e+04
-5.043669354074406874e+04
-5.040020414849892404e+04
-5.038950095742347185e+04
-5.047103098905977822e+04
-5.044262569483725383e+04
-5.048437288919421553e+04
-5.044125558548865229e+04
-5.041856155448643403e+04
-5.047149002513527375e+04
-5.045916686063028465e+04
-5.044174415945494547e+04
-5.045386499740314321e+04
-5.043907544599440735e+04
-5.041200159670027642e+04
-5.043019119343288912e+04
-5.045196247092836711e+04
-5.042826941987504688e+04
-5.046459725631914625e+04
-5.043679748253162688e+04
-5.048926110979470832e+04
-5.043590889583093667e+04
-5.044380403849515278e+04
-5.047165796629063698e+04
-5.043727984222588566e+04
-5.040248670030402718e+04
-5.041017133789201034e+04
-5.043101436874343199e+04
-5.037403013821311470e+04
-5.043739845675632387e+04
-5.041879257169303310e+04
-5.039551684393111645e+04
-5.042248213528408087e+04
-5.042187798893853324e+04
-5.043834611343430879e+04
-5.041954873914827476e+04
-5.044248542581561196e+04
-5.042271277269905841e+04
-5.043560120697574166e+04
-5.037783733504483098e+04
-5.038424268586523976e+04
-5.043036008831015351e+04
-5.040821856270650460e+04
-5.042271097274048225e+04
-5.043359138100141718e+04
-5.044760637365352886e+04
-5.043871749744991394e+04
-5.038831697902396263e+04
-5.040796996599215345e+04
-5.042148546732574323e+04
-5.043312528325105814e+04
-5.037244838159086066e+04
-5.043466301557359111e+04
-5.038485667888167518e+04
-5.038306976834357920e+04
-5.038525665828034107e+04
-5.037630402812618559e+04
-5.039860003853228409e+04
-5.044119974092666234e+04
-5.042903290159191965e+04
-5.039559653661728225e+04
-5.041947027465035353e+04
-5.040354915925455134e+04
-5.035433043215516227e+04
-5.039077065393076191e+04
-5.041953142006009148e+04
-5.042948728928968194e+04
-5.038139446621565730e+04
-5.043716281060243637e+04
-5.041386598994109227e+04
-5.037313306049306993e+04
-5.037624118144289241e+04
-5.043064963122791232e+04
-5.040692126695289335e+04
-5.039431510476338735e+04
-5.042571026863990119e+04
-5.043317587561591063e+04
-5.039831817563511140e+04
-5.040102953357610386e+04
-5.043672518630026025e+04
-5.043615838142287976e+04
-5.040140686123105843e+04
-5.042529922925969731e+04
-5.043266761117699934e+04
-5.040461608359085221e+04
-5.039411853290722502e+04
-5.043738726881787443e+04
-5.043707798814457055e+04
-5.043792830095636600e+04
-5.043315381393147982e+04
-5.045819600435593748e+04
-5.044111039022336627e+04
-5.043045330813495093e+04
-5.043863878838736127e+04
-5.046338141035510489e+04
-5.042418848325908039e+04
-5.039009822509220976e+04
-5.038836277476990654e+04
-5.039205003935319110e+04
-5.040399507678125519e+04
-5.044326295986359764e+04
-5.045447182581506058e+04
-5.046865764605576260e+04
-5.044317468430162990e+04
-5.043276474595439504e+04
-5.043265403522863198e+04
-5.043666182138011936e+04
-5.044343083588919399e+04
-5.046077196350527083e+04
-5.047758864096068282e+04
-5.045576501104801719e+04
-5.046377828529611725e+04
-5.046329819116377621e+04
-5.046352472177659365e+04
-5.042577474168840854e+04
-5.041662190564054617e+04
-5.048029700341448915e+04
-5.046120640808319877e+04
-5.048100606576530845e+04
-5.050036118097923463e+04
-5.044923971387554775e+04
-5.045180488180595421e+04
-5.043337611600578384e+04
-5.050163889584116259e+04
-5.051106955693638156e+04
-5.068076378413365455e+04
-5.055126097128677065e+04
-5.062837293767998926e+04
-5.051025998489298945e+04
-5.052303655938011070e+04
-5.044968646781613643e+04
-5.045936026311825844e+04
-5.042113195177682792e+04
-5.044345361502675223e+04
-5.045058851194920862e+04
-5.041338555002486828e+04
-5.047024597820638155e+04
-5.048270337910328817e+04
-5.051255564168667479e+04
-5.049393535284526297e+04
-5.044732438914444356e+04
-5.050896495098995365e+04
-5.048064098041194666e+04
-5.046818324297829531e+04
-5.049134850934267888e+04
-5.053974492784785980e+04
-5.049275845567251235e+04
-5.045192755988644058e+04
-5.048948208177646302e+04
-5.042698070823857415e+04
-5.045453477022457810e+04
-5.044136538852816011e+04
-5.048629849225064390e+04
-5.048912652134726522e+04
-5.051460723545802466e+04
-5.051415564933182759e+04
-5.048671191138263384e+04
-5.053724376851890702e+04
-5.048524759594565694e+04
-5.053263534138949035e+04
-5.051688300264270219e+04
-5.050608330970566749e+04
-5.049128509773713449e+04
-5.050867020935879555e+04
-5.050789512969541101e+04
-5.049419832517161558e+04
-5.053558640288344759e+04
-5.051469424062244070e+04
-5.053532175760390237e+04
-5.051304669403003936e+04
-5.051957457058269210e+04
-5.053540710496473912e+04
-5.048203554828137567e+04
-5.046987222459898476e+04
-5.047786660278723866e+04
-5.050721037220081053e+04
-5.048608099821637006e+04
-5.052656300443933287e+04
-5.056940755616037495e+04
-5.054976098209992051e+04
-5.049867491932593111e+04
-5.052119258222290955e+04
-5.054126424661988131e+04
-5.049214598062536243e+04
-5.051099397763550951e+04
-5.055336955903522176e+04
-5.050159367419547925e+04
-5.050721761400779360e+04
-5.052169727479666471e+04
-5.051615732300726086e+04
-5.049413819009657891e+04
-5.053020587822508242e+04
-5.054529662154365360e+04
-5.055244696717565967e+04
-5.055832126597446768e+04
-5.058069550208738656e+04
-5.057063607258095726e+04
-5.050971917420427053e+04
-5.053174571250171721e+04
-5.055418693075211922e+04
-5.054172643505851011e+04
-5.053638468196462054e+04
-5.057422819384177274e+04
-5.055256974474839080e+04
-5.060450565599952097e+04
-5.059372090950843267e+04
-5.058868979069272609e+04
-5.058087436254809290e+04
-5.061547226832098386e+04
-5.046822324182304146e+04
-5.050846604779886547e+04
-5.053156709643186332e+04
-5.055320927062336705e+04
-5.050162352723283402e+04
-5.058411637191448244e+04
-5.057971123099930264e+04
-5.057354885762032063e+04
-5.056417235556967353e+04
-5.059374741992714553e+04
-5.063138951787396945e+04
-5.054580152204076876e+04
-5.059397853761524311e+04
-5.057315490553429845e+04
-5.056681411975129595e+04
-5.057197870845077705e+04
-5.064199445932279195e+04
-5.056702032381879690e+04
-5.058029677816064213e+04
-5.059985371661306999e+04
-5.054163943261867098e+04
-5.057726787536093616e+04
-5.058445892600801744e+04
-5.058700127821542992e+04
-5.060334370158364618e+04
-5.059813673045827454e+04
-5.057596390740147763e+04
-5.055590451714271330e+04
-5.060916371119442920e+04
-5.062078208041429025e+04
-5.066051698535099422e+04
-5.061140200675509550e+04
-5.064044040085931192e+04
-5.059151946171288728e+04
-5.056858346132095903e+04
-5.059662073923739081e+04
-5.063221708838599443e+04
-5.069131559305659903e+04
-5.064607164895308961e+04
-5.053256843228275829e+04
-5.056249622719211766e+04
-5.060715321620559553e+04
-5.060283452690189733e+04
-5.065779233041658154e+04
-5.084252760210189444e+04
-5.074656498984824429e+04
-5.067810592205534340e+04
-5.062029892354313779e+04
-5.064818713571476837e+04
-5.061176347632382385e+04
-5.062825673808247666e+04
-5.065878298264555633e+04
-5.064706853588621743e+04
-5.063566097054156126e+04
-5.060647484103283932e+04
-5.065722251069927734e+04
-5.066493296298624045e+04
-5.065541217761096777e+04
-5.061270612563821487e+04
-5.062536619280242303e+04
-5.064023451461327204e+04
-5.059394872017220041e+04
-5.065306483852038218e+04
-5.068371229835637496e+04
-5.067294529050770507e+04
-5.062189495651446487e+04
-5.067658551464172342e+04
-5.069099159506663273e+04
-5.069939169264092197e+04
-5.069399710054858588e+04
-5.068559512549074134e+04
-5.072822843052553799e+04
-5.066428751899125928e+04
-5.061731617469955381e+04
-5.060955398967883957e+04
-5.064997465439284133e+04
-5.062126598278486927e+04
-5.065265633501546108e+04
-5.068475108493578591e+04
-5.068680257569414971e+04
-5.075945492731306149e+04
-5.065167177138505940e+04
-5.061400415678723948e+04
-5.068422628964018804e+04
-5.071715518990370037e+04
-5.064756985347915179e+04
-5.063003531017160276e+04
-5.073556893791530456e+04
-5.063882906288755476e+04
-5.061120257422683062e+04
-5.054914978255864844e+04
-5.077392388230178767e+04
-5.062491931510624272e+04
-5.062685107727913419e+04
-5.085582589804897725e+04
-5.084906648577401211e+04
-5.073517707727188099e+04
-5.081130946722865338e+04
-5.083706606959797500e+04
-5.064794224820859381e+04
-5.070865960823510977e+04
-5.064362852281029336e+04
-5.075380503442724876e+04
-5.076178656981750100e+04
-5.050651059811688901e+04
-5.066804313764125982e+04
-5.075427514865346893e+04
-5.054230006300353125e+04
-5.056878338312299456e+04
-5.055654506245559605e+04
-5.042327265193448693e+04
-5.047186485718010226e+04
-5.043847727965531521e+04
-5.041565758065133559e+04
-5.091165360377460456e+04
-5.075474969378893002e+04
-5.045843739617116080e+04
-5.064868268003277626e+04
-5.054375603085043986e+04
-5.045340768174130790e+04
-5.038890997792986309e+04
-5.052980039937468973e+04
-5.047335133417570614e+04
-5.044018124876944785e+04
-5.021404614797284012e+04
-5.046735552606009878e+04
-5.048683372771464929e+04
-5.049515624523438601e+04
-5.053901459047593380e+04
-5.045414519703230326e+04
-5.052829354604593391e+04
-5.068558754392035917e+04
-5.052591770330043801e+04
-5.064137048928060540e+04
-5.079538971762848814e+04
-5.068072531493777205e+04
-5.066086087236722233e+04
-5.075138866245524696e+04
-5.101751552154819365e+04
-5.098715610965929227e+04
-5.097623443472462532e+04
-5.099417961787263630e+04
-5.117213262123861205e+04
-5.101277673779566248e+04
-5.125939937694472610e+04
-5.137668087720517360e+04
-5.126175467023868987e+04
-5.151647210813414858e+04
-5.137381378730582946e+04
-5.147020752697889839e+04
-5.166882697047032707e+04
-5.185355448470313422e+04
-5.180142139563243836e+04
-5.187885042273433646e+04
-5.185315175549012201e+04
-5.178840809183479723e+04
-5.214445099660257256e+04
-5.187821553777968074e+04
-5.210602810868051165e+04
-5.223879798386583570e+04
-5.240439431725164468e+04
-5.210776101928917342e+04
-5.228422417106959620e+04
-5.261795150551588449e+04
-5.254529340248767403e+04
-5.241131164036104019e+04
-5.254794156538770039e+04
-5.295158827990572172e+04
-5.290839662183348992e+04
-5.286001924773038627e+04
-5.313880243868885009e+04
-5.341681252243027848e+04
-5.320657576554413390e+04
-5.311828340378416760e+04
-5.338573221824884968e+04
-5.355869431845856889e+04
-5.352084272338783921e+04
-5.371717750346793036e+04
-5.346428982938228728e+04
-5.380778081597354321e+04
-5.362191020466449118e+04
-5.343408660534466617e+04
-5.354194801511998230e+04
-5.406180445502436487e+04
-5.369764459081642417e+04
-5.375391356395663024e+04
-5.405969725288454356e+04
-5.382508767575921956e+04
-5.369251800409253337e+04
-5.388484003816472978e+04
-5.394209348475094157e+04
-5.386418050649124780e+04
-5.396907723186007206e+04
-5.402260549356962292e+04
-5.389753366352748708e+04
-5.396300415003370290e+04
-5.401564649505700072e+04
-5.414784324799902970e+04
-5.425521512058828375e+04
-5.430422849724499247e+04
-5.432507422975841473e+04
-5.448215786458518414e+04
-5.444872381091066200e+04
-5.434098731494717504e+04
-5.452809057947953988e+04
-5.459542530362628167e+04
-5.436975645715749124e+04
-5.445362628798937658e+04
-5.446764760016111541e+04
-5.447594744717455615e+04
-5.449590032899246580e+04
-5.460704054600308154e+04
-5.465228994485420117e+04
-5.478224212514435203e+04
-5.467622552294019260e+04
-5.470880009917894495e+04
-5.486410519708374341e+04
-5.473415252883725771e+04
-5.474895468753896421e+04
-5.499655292599984386e+04
-5.491232583868982329e+04
-5.484287384035046853e+04
-5.499552117031033413e+04
-5.495239171837727190e+04
-5.483227353977766325e+04
-5.487486489020518638e+04
-5.489496067904287338e+04
-5.500251594860189653e+04
-5.499920859682618175e+04
-5.491431334569700994e+04
-5.510217010777281394e+04
-5.515442003635490983e+04
-5.495643965005288192e+04
-5.502426725094696303e+04
-5.516925624940729904e+04
-5.508386220286083699e+04
-5.505727039521256665e+04
-5.505545867188320699e+04
-5.521580219468927680e+04
-5.513749535120802466e+04
-5.506336167151161499e+04
-5.509486441465881944e+04
-5.520995783980740816e+04
-5.501038523476819682e+04
-5.517951594225912413e+04
-5.529199021450216242e+04
-5.517721312456918531e+04
-5.529278253645062796e+04
-5.526125234148800519e+04
-5.516112892592779099e+04
-5.513941609329202038e+04
-5.522540561275837536e+04
-5.516204105587760569e+04
-5.524262387320573180e+04
-5.522289124029177037e+04
-5.515399657567083341e+04
-5.533653489172624541e+04
-5.521432004641058302e+04
-5.520562524391512125e+04
-5.523458129412546987e+04
-5.534621505207548762e+04
-5.521342338032288535e+04
-5.518326533042118535e+04
-5.527656025865770789e+04
-5.532579700883366604e+04
-5.530643712710317050e+04
-5.518733654518553521e+04
-5.529793652879086585e+04
-5.529157988666821620e+04
-5.521660293491248740e+04
-5.521677618613504455e+04
-5.528715179911739688e+04
-5.534066252222611365e+04
-5.527642654635666986e+04
-5.538647098446393647e+04
-5.534505598462044145e+04
-5.538074600974158238e+04
-5.540887559000925103e+04
-5.535788373925394990e+04
-5.531194129370564769e+04
-5.540880035681300797e+04
-5.549551482339651557e+04
-5.545391172269550589e+04
-5.550129030900949874e+04
-5.544527202438256791e+04
-5.540277740208502655e+04
-5.549387441330146976e+04
-5.547293308896886447e+04
-5.555746164677447814e+04
-5.563188400285068201e+04
-5.572719881215144414e+04
-5.550293059310987155e+04
-5.544447845422220416e+04
-5.555051922112821194e+04
-5.560305439460208436e+04
-5.540156007900708937e+04
-5.548366983318932034e+04
-5.553641398188359017e+04
-5.538421060138952453e+04
-5.556619591187978949e+04
-5.583406003018764022e+04
-5.582756951687625406e+04
-5.602487596667501202e+04
-5.597115347819201270e+04
-5.564133042370971089e+04
-5.554403005070541258e+04
-5.553646334909548023e+04
-5.530233735803281888e+04
-5.538249903951031592e+04
-5.538658952479023719e+04
-5.531280355090026569e+04
-5.538358285723208246e+04
-5.536611796717165271e+04
-5.528543967631298437e+04
-5.526114578625107242e+04
-5.518537368781105033e+04
-5.516310399245710869e+04
-5.518045521651572926e+04
-5.511907821835111099e+04
-5.522848701028300275e+04
-5.522511071601988806e+04
-5.492311416965512763e+04
-5.480494293666649901e+04
-5.486460250220508897e+04
-5.482543481039952894e+04
-5.473972470923076617e+04
-5.476650399171265599e+04
-5.474325515059923055e+04
-5.459241842521026410e+04
-5.434567394656914985e+04
-5.429616081859058613e+04
-5.430297440314319101e+04
-5.416767801092135778e+04
-5.392476975023277919e+04
-5.381748146056833502e+04
-5.373540237187472667e+04
-5.367933189665440295e+04
-5.352980137936283427e+04
-5.358646121210022829e+04
-5.354471929954094958e+04
-5.350235255481208878e+04
-5.326244054911737476e+04
-5.332367873033509386e+04
-5.325177312544084270e+04
-5.327618070859654108e+04
-5.312052481297340273e+04
-5.317494385761854210e+04
-5.320795369532486802e+04
-5.325747216668759211e+04
-5.326431224166660104e+04
-5.327823073129831027e+04
-5.327082279650236160e+04
-5.306976131892194098e+04
-5.307379442792318150e+04
-5.309594364966399735e+04
-5.318172607590097323e+04
-5.329162126024365716e+04
-5.350132677831276669e+04
-5.346316432810170227e+04
-5.338052851901800022e+04
-5.354725605160326086e+04
-5.358150178583936213e+04
-5.358798325756784470e+04
-5.361628979852926568e+04
-5.373810543582170794e+04
-5.370931213825659506e+04
-5.370335403054350900e+04
-5.369767043709490099e+04
-5.381725357223035098e+04
-5.389628697801425733e+04
-5.376322809805595170e+04
-5.373420121574251971e+04
-5.372642087366870692e+04
-5.368385422872829804e+04
-5.362530500487018435e+04
-5.362993751481126674e+04
-5.362846876251230424e+04
-5.360882468041586253e+04
-5.355712770086267119e+04
-5.346975281715269375e+04
-5.354899761472603132e+04
-5.347291487664882879e+04
-5.341807119494077779e+04
-5.339517987623508816e+04
-5.340949676943491068e+04
-5.340395153644969105e+04
-5.345802708352655463e+04
-5.352290829895730712e+04
-5.345318135620920657e+04
-5.345130192296676250e+04
-5.336166219462845038e+04
-5.334717131392224837e+04
-5.332151252058550017e+04
-5.338289243323550181e+04
-5.336617698408209253e+04
-5.337196894241532573e+04
-5.337759504698416276e+04
-5.328939719019082986e+04
-5.333408723053518770e+04
-5.335780221216440987e+04
-5.335642671638548927e+04
-5.331650982165396272e+04
-5.332471296773302311e+04
-5.320156845308767515e+04
-5.318102764343429590e+04
-5.318617739266441640e+04
-5.316957983732535649e+04
-5.314731605153653072e+04
-5.318191700131575635e+04
-5.310265336983316956e+04
-5.308793005114539119e+04
-5.304556696344552620e+04
-5.308510209297080291e+04
-5.307405964802682138e+04
-5.309604275325408526e+04
-5.304802529163689178e+04
-5.302259952192622586e+04
-5.306380180027233291e+04
-5.300131170906197076e+04
-5.302320764991371834e+04
-5.303450367269157869e+04
-5.311099190867969446e+04
-5.295111255937322130e+04
-5.292188473186475312e+04
-5.294809011846526118e+04
-5.293812523912174947e+04
-5.289922129032189696e+04
-5.294797462087736494e+04
-5.312079979453985288e+04
-5.299006491363437817e+04
-5.299057800260917429e+04
-5.296818285457382444e+04
-5.296042560323071666e+04
-5.277669325257926539e+04
-5.280808787158670020e+04
-5.284783348931287765e+04
-5.283360880275370437e+04
-5.284733449888995528e+04
-5.285855134472939244e+04
-5.291387821052698564e+04
-5.283096623485904274e+04
-5.282232299820343178e+04
-5.278107968933403026e+04
-5.279957011881462677e+04
-5.280627343623520574e+04
-5.278565413230715058e+04
-5.274414367952688190e+04
-5.275391424288495909e+04
-5.279734582898311055e+04
-5.272109058445193659e+04
-5.273213929265716433e+04
-5.276660072548006428e+04
-5.275345352537510189e+04
-5.263020100695246219e+04
-5.254666568042898143e+04
-5.258233242858863377e+04
-5.258936849608989723e+04
-5.257001088269517641e+04
-5.254891913135764480e+04
-5.263222618191081710e+04
-5.257374127895361744e+04
-5.249859251583984587e+04
-5.243610250846453710e+04
-5.252532411299491650e+04
-5.252331870301912568e+04
-5.250895565283890755e+04
-5.252905268963171693e+04
-5.253800530637283373e+04
-5.251960064014889940e+04
-5.249225069008358696e+04
-5.251176480250703025e+04
-5.250336908189453243e+04
-5.253871907213155646e+04
-5.248504485906615446e+04
-5.249721607452442549e+04
-5.252406695309098723e+04
-5.249653881403066771e+04
-5.252066220264112053e+04
-5.248283377259325789e+04
-5.247031738634981593e+04
-5.237864462506405107e+04
-5.242179461171094590e+04
-5.240277127999060031e+04
-5.244283503778385057e+04
-5.240817093984512758e+04
-5.245117559696796525e+04
-5.244145596392054722e+04
-5.233161046889329737e+04
-5.235501700160181645e+04
-5.236822539512471121e+04
-5.239122298904971103e+04
-5.235838472718330740e+04
-5.239268100791176403e+04
-5.242838003244723222e+04
-5.240997891168585920e+04
-5.237694894529406156e+04
-5.238611403909324872e+04
-5.244285669128442532e+04
-5.229350466388447967e+04
-5.231557309096925746e+04
-5.230997514207786298e+04
-5.234216033980763314e+04
-5.231541716411572270e+04
-5.234111502385226777e+04
-5.237308473597575357e+04
-5.238522893801217288e+04
-5.228134796865418321e+04
-5.229459040000776440e+04
-5.233501691830703203e+04
-5.229327134427763667e+04
-5.233341675899635447e+04
-5.236057799911479378e+04
-5.228730008111493225e+04
-5.234192271797229478e+04
-5.231909784735185531e+04
-5.220073870404507034e+04
-5.226382540694698400e+04
-5.229615184420497098e+04
-5.224353433332611894e+04
-5.222403295734926360e+04
-5.226819476710959862e+04
-5.225493185783382796e+04
-5.226742203508813691e+04
-5.221958773700991878e+04
-5.223801997336579370e+04
-5.229544001196933823e+04
-5.228229555207040539e+04
-5.225137666871964029e+04
-5.222774832858236186e+04
-5.226407363918640476e+04
-5.222321578103250795e+04
-5.216133584663539659e+04
-5.216198914534384676e+04
-5.221054655778160668e+04
-5.219632052047573961e+04
-5.218527798965592228e+04
-5.221078190825355705e+04
-5.218251963847323350e+04
-5.224847041638948576e+04
-5.221516801736382331e+04
-5.219765865127508005e+04
-5.223647682274240651e+04
-5.228272664672967949e+04
-5.216468126860507618e+04
-5.217764052420502412e+04
-5.224144592780389212e+04
-5.218786170995871362e+04
-5.219061024580450612e+04
-5.221498453426756896e+04
-5.218921313114040095e+04
-5.212447112012253638e+04
-5.212932609831501031e+04
-5.217080782221898698e+04
-5.218715950696964865e+04
-5.225647328479233693e+04
-5.229984154751352617e+04
-5.238701906666742434e+04
-5.222872298944721115e+04
-5.224820158352636645e+04
-5.220383026486021117e+04
-5.217138008212637942e+04
-5.211374735604866873e+04
-5.218067244440712966e+04
-5.215035848755717598e+04
-5.214413239950405841e+04
-5.215922775726260443e+04
-5.213580058390831255e+04
-5.216357370150394854e+04
-5.217027619819816755e+04
-5.216822540619420033e+04
-5.217801907338834280e+04
-5.211219211922049726e+04
-5.212684919728868408e+04
-5.212536598761092318e+04
-5.211358832157276629e+04
-5.209268200371611601e+04
-5.217979591129053006e+04
-5.214600242132492713e+04
-5.207841452280138037e+04
-5.206993660781009385e+04
-5.206803917147580796e+04
-5.208136442798987991e+04
-5.209458266534400900e+04
-5.213749971923263365e+04
-5.218881351350167097e+04
-5.216995551629606052e+04
-5.211703639625195501e+04
-5.201653098962060176e+04
-5.205809472596379055e+04
-5.201974013071831723e+04
-5.203435162915133697e+04
-5.204672372550286673e+04
-5.212456606198677764e+04
-5.207765732908961945e+04
-5.205045277511998574e+04
-5.205986847050461802e+04
-5.208425787791715265e+04
-5.209734421035895502e+04
-5.206901234286737599e+04
-5.211346182383895939e+04
-5.212976674053697207e+04
-5.205288212920571095e+04
-5.204660113730550802e+04
-5.209377244707461796e+04
-5.205860831432361738e+04
-5.202483078843229305e+04
-5.206476878570567351e+04
-5.206909338681708323e+04
-5.205437214279922773e+04
-5.206252560319612530e+04
-5.205970327161021123e+04
-5.209990039730600256e+04
-5.201684613738313055e+04
-5.199792975238693907e+04
-5.202077350889029913e+04
-5.205778583624680323e+04
-5.205635631128673413e+04
-5.209560463916557637e+04
-5.210089254661513405e+04
-5.207159720254178683e+04
-5.203308529022888251e+04
-5.197851055055284087e+04
-5.201504229341550672e+04
-5.198967968612344703e+04
-5.199665678783031035e+04
-5.202549231147802493e+04
-5.204388354982813325e+04
-5.206134975936503906e+04
-5.209925456144488271e+04
-5.211316751029642910e+04
-5.208889204616141069e+04
-5.206350804937673820e+04
-5.199345506332337391e+04
-5.198652832057380874e+04
-5.199793983429189393e+04
-5.198550316828279028e+04
-5.200369469705607480e+04
-5.201034355461956875e+04
-5.204104893897015427e+04
-5.199901182501010044e+04
-5.202722878890969878e+04
-5.209015426507814118e+04
-5.209250068697953247e+04
-5.199209855063215218e+04
-5.199586671254751127e+04
-5.203171928266227769e+04
-5.198946932898194791e+04
-5.200521637789910892e+04
-5.205636182856451342e+04
-5.205967501214749791e+04
-5.202191616281561437e+04
-5.197389911501864117e+04
-5.201019651397072448e+04
-5.201729841612873133e+04
-5.200407467799523874e+04
-5.204729018435697071e+04
-5.207526533309962542e+04
-5.202512030634463008e+04
-5.205147525275296357e+04
-5.211392460711111198e+04
-5.202820819337580178e+04
-5.206189079520602536e+04
-5.202448219285522646e+04
-5.197851070580610394e+04
-5.207160743364866357e+04
-5.205476156917402113e+04
-5.203491660806546133e+04
-5.210916505786495691e+04
-5.211729196214582043e+04
-5.192961019022279652e+04
-5.199859203532736137e+04
-5.200091764886018063e+04
-5.195404221376088390e+04
-5.199442417260596994e+04
-5.195606445773917221e+04
-5.199156243062829890e+04
-5.197674775003614923e+04
-5.202940780323189392e+04
-5.197279987529991922e+04
-5.197743682671974966e+04
-5.206067198664102034e+04
-5.207842700242655701e+04
-5.203413893455210928e+04
-5.202326359479923121e+04
-5.227034714004349371e+04
-5.209313565316423046e+04
-5.204658765174167638e+04
-5.203729133040401211e+04
-5.206510312313657050e+04
-5.199752857547086751e+04
-5.198031582060818619e+04
-5.209507854612717347e+04
-5.206004433449448698e+04
-5.208979663256424828e+04
-5.197692562334609829e+04
-5.206861090123042231e+04
-5.200013485869435681e+04
-5.207614153803398949e+04
-5.209429108359262318e+04
-5.205768536130724533e+04
-5.206766178950671747e+04
-5.202932099212684261e+04
-5.205340798955006176e+04
-5.196743618752750626e+04
-5.200377527048835327e+04
-5.201248020209249808e+04
-5.202320304302865406e+04
-5.196803793078872695e+04
-5.199067450119181740e+04
-5.203464815319625632e+04
-5.198818681851714064e+04
-5.203710194937854249e+04
-5.203061104708017956e+04
-5.202890392268887081e+04
-5.204845887979547842e+04
-5.205791466893165489e+04
-5.205247836822785757e+04
-5.200574588386474352e+04
-5.202169129119367426e+04
-5.202726285622949217e+04
-5.206142312685218349e+04
-5.203616043599187833e+04
-5.205529102100761520e+04
-5.208309279773177695e+04
-5.202210263510583900e+04
-5.203750041678098205e+04
-5.204296422805848852e+04
-5.210218229064673505e+04
-5.206200399194770580e+04
-5.204764042334967235e+04
-5.193123656902203948e+04
-5.191785105634314095e+04
-5.196545015053360112e+04
-5.193359640143693832e+04
-5.197421914765915426e+04
-5.203972023339118459e+04
-5.204487593152425688e+04
-5.190451161325496651e+04
-5.194601094217738864e+04
-5.194656928689017514e+04
-5.196483722560945171e+04
-5.195967102333354705e+04
-5.198719253985585237e+04
-5.197378725789709279e+04
-5.194729403178874782e+04
-5.196315819985655980e+04
-5.197100521846117772e+04
-5.197354007739089866e+04
-5.195353652319893445e+04
-5.196448347550232575e+04
-5.196751190744953055e+04
-5.195834499430550932e+04
-5.198859361360066396e+04
-5.199498143952879764e+04
-5.200297225755006366e+04
-5.192062128858583310e+04
-5.197274160886699246e+04
-5.195256907009315182e+04
-5.196785391482981504e+04
-5.196023750608650153e+04
-5.200657051245802722e+04
-5.193089367696215777e+04
-5.194965239792416833e+04
-5.192306503960187547e+04
-5.192100469271037582e+04
-5.193409936091035343e+04
-5.190608778574732423e+04
-5.188491659254229307e+04
-5.190798903519087617e+04
-5.186902396129981207e+04
-5.185182875330623210e+04
-5.192232417200918280e+04
-5.190519327463296941e+04
-5.187842654355564446e+04
-5.190134831074542308e+04
-5.190740147976174194e+04
-5.193650501755787991e+04
-5.191750049977846356e+04
-5.189317066823580535e+04
-5.195779760696573067e+04
-5.197003735837115528e+04
-5.187211939506899944e+04
-5.187093491140498372e+04
-5.190388093074117205e+04
-5.186108882585612446e+04
-5.183982279036030377e+04
-5.189758909581824264e+04
-5.196296809100334940e+04
-5.194883663316600723e+04
-5.187059814374462439e+04
-5.188425993505739461e+04
-5.185466459348369972e+04
-5.185178024941446347e+04
-5.187852630371601117e+04
-5.191530093452157598e+04
-5.185918114087232971e+04
-5.190030787072065868e+04
-5.186032133689884358e+04
-5.183203618588729296e+04
-5.186804057577247295e+04
-5.192392418689931219e+04
-5.189573940525350190e+04
-5.184603615311501198e+04
-5.183982599987053254e+04
-5.185394823414934945e+04
-5.190249967066125828e+04
-5.190309971781688364e+04
-5.184951586794502509e+04
-5.185447490746892436e+04
-5.193043268572547095e+04
-5.193288899612035311e+04
-5.192993227216314699e+04
-5.217189233043573768e+04
-5.218741882170084136e+04
-5.200253722481001023e+04
-5.190258685338385112e+04
-5.194607458785812923e+04
-5.182384414307674888e+04
-5.182028775751542707e+04
-5.189252598531075637e+04
-5.190339954730486352e+04
-5.188353737228549289e+04
-5.186144520445103262e+04
-5.183536997839315882e+04
-5.185223986950545805e+04
-5.191103107423851907e+04
-5.189207603807124542e+04
-5.186201510010652419e+04
-5.186195100382550299e+04
-5.187627026734483661e+04
-5.189957390062793274e+04
-5.187331647537722165e+04
-5.186628375375848555e+04
-5.192337499334947643e+04
-5.191409940817956522e+04
-5.184700641995607293e+04
-5.189071603781278100e+04
-5.191292085260448948e+04
-5.188425383308098390e+04
-5.188020197709301283e+04
-5.190624347175026924e+04
-5.192282008130568283e+04
-5.196447339924207336e+04
-5.188046944924006675e+04
-5.187725161382778606e+04
-5.195387258556987217e+04
-5.190562490667906241e+04
-5.191786664800690778e+04
-5.197961094940697512e+04
-5.198279879993081704e+04
-5.184656092235937103e+04
-5.190333875898286351e+04
-5.187737138119998417e+04
-5.189475965394357627e+04
-5.188353264911705628e+04
-5.194660124377423199e+04
-5.190277757860282145e+04
-5.187837888033901982e+04
-5.192146679940276226e+04
-5.191700517993543326e+04
-5.193304167254005733e+04
-5.196473718963055580e+04
-5.190497024459213571e+04
-5.184769602379838761e+04
-5.189503198473771772e+04
-5.190401500758765906e+04
-5.187372734508281428e+04
-5.194884396497323905e+04
-5.190484536022789689e+04
-5.188665731485051219e+04
-5.188511047911286005e+04
-5.187990046282646654e+04
-5.188180959401450673e+04
-5.189951391113962745e+04
-5.189121238671918400e+04
-5.186910686731249007e+04
-5.187203563909861987e+04
-5.191585763945592043e+04
-5.193429277672015451e+04
-5.189879953351825679e+04
-5.191215507874928880e+04
-5.194739753188195027e+04
-5.185755681117124186e+04
-5.187468192613471183e+04
-5.185801036333016964e+04
-5.182902664277228905e+04
-5.186339679077801702e+04
-5.187212739293379855e+04
-5.187396685618207994e+04
-5.188917587201201968e+04
-5.187379092913770000e+04
-5.181413029847459256e+04
-5.184728913394190022e+04
-5.178907695452309417e+04
-5.186086265784521675e+04
-5.192228718033870973e+04
-5.187544253239383397e+04
-5.175326944434361212e+04
-5.183297402400244755e+04
-5.188993617811462900e+04
-5.183940224310354824e+04
-5.176679521671475231e+04
-5.195189504857605061e+04
-5.182338156433994300e+04
-5.161103363888237072e+04
-5.176778234106144373e+04
-5.197503108429244458e+04
-5.193561427885502053e+04
-5.199021029285639088e+04
-5.205708660322069773e+04
-5.183329331342844671e+04
-5.182714677945245057e+04
-5.176781568657291791e+04
-5.173217326551525912e+04
-5.182657910707870906e+04
-5.186411407207616867e+04
-5.177786634456083993e+04
-5.168429844093402789e+04
-5.191910314006228873e+04
-5.186282246951665729e+04
-5.189168883703784377e+04
-5.185805466433391121e+04
-5.195571630468894728e+04
-5.174197130706609460e+04
-5.159899180732603418e+04
-5.175562654284002929e+04
-5.175916902077967825e+04
-5.174192830124897591e+04
-5.165230144211392326e+04
-5.185005941241988330e+04
-5.174922827990063524e+04
-5.166077904714216857e+04
-5.175526421374506754e+04
-5.185816405905930878e+04
-5.186595937961844902e+04
-5.160383261497590138e+04
-5.179113246481352689e+04
-5.187409190289727121e+04
-5.182664719463178335e+04
-5.172891780357203243e+04
-5.196445042290697165e+04
-5.211247801877299207e+04
-5.167880736201709806e+04
-5.171392980909928883e+04
-5.174742491817368136e+04
-5.187199650544374163e+04
-5.145413953396496800e+04
-5.164641450378304580e+04
-5.174520705229220039e+04
-5.165926722014755796e+04
-5.164636349008508114e+04
-5.171030849875684362e+04
-5.166573782098063384e+04
-5.169380512494128197e+04
-5.164995773378372542e+04
-5.130997918651439977e+04
-5.151710740617713600e+04
-5.189410834808189247e+04
-5.157875998457671085e+04
-5.173088200464622787e+04
-5.187575441430234059e+04
-5.185461565076039551e+04
-5.173518643155620521e+04
-5.182797188003997871e+04
-5.190234778336421004e+04
-5.213648885874835105e+04
-5.217852159283054061e+04
-5.195120655407731829e+04
-5.225820679459017992e+04
-5.232469985540275957e+04
-5.235037245270728454e+04
-5.257609951545712829e+04
-5.270445893744280329e+04
-5.285976632502660505e+04
-5.294790912926616147e+04
-5.312043652760297846e+04
-5.299844098892520560e+04
-5.336028706443864940e+04
-5.333815391891299078e+04
-5.348368395254510688e+04
-5.361788382237342739e+04
-5.363800448077993497e+04
-5.383740578733730945e+04
-5.395188741138862679e+04
-5.393134980115094368e+04
-5.379636528985086625e+04
-5.425083886375778820e+04
-5.409741218768930412e+04
-5.415746145233463176e+04
-5.430271562929655192e+04
-5.453167272900351236e+04
-5.468886989675198856e+04
-5.481033328846110089e+04
-5.490832490366601996e+04
-5.507557940006568242e+04
-5.516639829467345407e+04
-5.494036683897556941e+04
-5.505340953160282515e+04
-5.511398455314050807e+04
-5.514163484066514502e+04
-5.524463492803488043e+04
-5.519388286024583795e+04
-5.529128535928657948e+04
-5.537907342580377735e+04
-5.537701159350234957e+04
-5.546389381111186231e+04
-5.577763848125204822e+04
-5.571578060460223060e+04
-5.575885136176075321e+04
-5.588867962582771725e+04
-5.584355229322397645e+04
-5.589815740171830839e+04
-5.604137229355548334e+04
-5.615091084399640386e+04
-5.623597340906614409e+04
-5.626508230816358264e+04
-5.621763800139960222e+04
-5.631070172102893412e+04
-5.635734059734459152e+04
-5.630839709098379535e+04
-5.643014224546450714e+04
-5.660872263709713297e+04
-5.658796027825611236e+04
-5.648337700303972088e+04
-5.648560130671166553e+04
-5.654399486697649263e+04
-5.644134065731446026e+04
-5.645022926189917052e+04
-5.654148633926655020e+04
-5.666687745589215774e+04
-5.663902836927730823e+04
-5.666544738240772858e+04
-5.669844568733631604e+04
-5.677930944241786347e+04
-5.674703242878732999e+04
-5.677940694027436257e+04
-5.681693135558275389e+04
-5.681948841177617578e+04
-5.680024292098101432e+04
-5.680375731382235244e+04
-5.679762949037053477e+04
-5.681997174303905194e+04
-5.684036646541049413e+04
-5.679418312570476701e+04
-5.686933133902008558e+04
-5.683945426332414354e+04
-5.681092171780099306e+04
-5.681087421559439099e+04
-5.683290157319156424e+04
-5.677251197892457276e+04
-5.685094112030183169e+04
-5.692395141374145896e+04
-5.692028317502034042e+04
-5.693261349973291362e+04
-5.693087667093952768e+04
-5.686687707008591678e+04
-5.686561461202551436e+04
-5.685893526431225473e+04
-5.691066623869933392e+04
-5.692278365089164436e+04
-5.698024646165864397e+04
-5.690135076219300390e+04
-5.697701259715460765e+04
-5.693593574559521221e+04
-5.685428913658222154e+04
-5.695821453306737385e+04
-5.700651453627568117e+04
-5.698504573291004635e+04
-5.700963649865245679e+04
-5.722321147833559371e+04
-5.703614363725987641e+04
-5.705865253241401660e+04
-5.702089495285938028e+04
-5.700205465157554136e+04
-5.694278317763981613e+04
-5.703047488822051673e+04
-5.712472134226509661e+04
-5.707652207239164272e+04
-5.705724081062492769e+04
-5.703039299613223557e+04
-5.710071975209794618e+04
-5.700411610000641667e+04
-5.716755030009252368e+04
-5.723983287048554484e+04
-5.719317850968938728e+04
-5.713902277695381781e+04
-5.712613509448606055e+04
-5.708509067550840700e+04
-5.713572882375368499e+04
-5.716050493578665919e+04
-5.716309606513845938e+04
-5.721598464942165447e+04
-5.716323054925833276e+04
-5.705067391311279789e+04
-5.707124881444041239e+04
-5.718469443955653696e+04
-5.719737705452150840e+04
-5.724851608517847490e+04
-5.728841046666487091e+04
-5.736563536446631042e+04
-5.719866367448234814e+04
-5.721806268221651408e+04
-5.723034790849506680e+04
-5.724826151348261919e+04
-5.728742621960852557e+04
-5.741695885233930312e+04
-5.744850433504642569e+04
-5.739436599206705432e+04
-5.744266469917507493e+04
-5.731805928006435715e+04
-5.732975056226699235e+04
-5.732011191566435446e+04
-5.738953522239234007e+04
-5.740380222438537749e+04
-5.743588855119371146e+04
-5.748241543430093589e+04
-5.743433142032397882e+04
-5.748838877139711258e+04
-5.747164038333686767e+04
-5.753824736497859703e+04
-5.745505681072652078e+04
-5.754594095287873643e+04
-5.757419730017567781e+04
-5.753552002257165441e+04
-5.756710766992998106e+04
-5.761892922501160501e+04
-5.760590179729067313e+04
-5.752448743872660270e+04
-5.758437197742277931e+04
-5.757605948575527873e+04
-5.762288151456478954e+04
-5.768865912891032349e+04
-5.765831773534279637e+04
-5.772060540981959639e+04
-5.772594108685778338e+04
-5.770611550762856496e+04
-5.767619521243878989e+04
-5.776408229014511744e+04
-5.773799163063598098e+04
-5.770893767683147598e+04
-5.776769286011186341e+04
-5.773926015620481485e+04
-5.776294995760959137e+04
-5.771842512518939475e+04
-5.777332744744425872e+04
-5.772332627690226218e+04
-5.772703791080338851e+04
-5.774059572858457250e+04
-5.774053335609992791e+04
-5.768919312918408104e+04
-5.762995943245348462e+04
-5.768410306543660408e+04
-5.775140860168621293e+04
-5.779736207502119942e+04
-5.782026171272111242e+04
-5.786401955219385854e+04
-5.778074406667074072e+04
-5.748553422232593584e+04
-5.737887276066863706e+04
-5.735487082773524889e+04
-5.738696550357784145e+04
-5.739480923246416205e+04
-5.743970271640728606e+04
-5.742950144786258170e+04
-5.729538803394003480e+04
-5.720190463712378551e+04
-5.718931798179318866e+04
-5.718337410869649466e+04
-5.716349380267611559e+04
-5.719091189909631794e+04
-5.706239560700759466e+04
-5.686576355925038661e+04
-5.689373459762652783e+04
-5.687487340309672436e+04
-5.681131003084716212e+04
-5.678784774329989159e+04
-5.676877836421085522e+04
-5.673790669699648424e+04
-5.651481112861234578e+04
-5.643214264506693871e+04
-5.637326808902659832e+04
-5.638891499702238070e+04
-5.622174935618134623e+04
-5.616253550677845487e+04
-5.604066604367882974e+04
-5.596521870618821413e+04
-5.586830236941899057e+04
-5.565811924605348031e+04
-5.568175404766300198e+04
-5.574570979159572744e+04
-5.579029395323243079e+04
-5.579011278341106663e+04
-5.588822992310688278e+04
-5.601810875124606537e+04
-5.595026089770020917e+04
-5.594115535220228776e+04
-5.596445222941874090e+04
-5.600827821236115415e+04
-5.584752855964647460e+04
-5.583713114578924433e+04
-5.578767013655687333e+04
