-6.540800000000000000e+04
-6.894900000000000000e+04
-7.350100000000000000e+04
-7.265200000000000000e+04
-6.750100000000000000e+04
-6.541500000000000000e+04
-6.893500000000000000e+04
-7.350400000000000000e+04
-7.268700000000000000e+04
-6.755300000000000000e+04
-6.543500000000000000e+04
-6.892000000000000000e+04
-7.349200000000000000e+04
-7.272200000000000000e+04
-6.760000000000000000e+04
-6.545000000000000000e+04
-6.889600000000000000e+04
-7.350000000000000000e+04
-7.276900000000000000e+04
-6.765200000000000000e+04
-6.545800000000000000e+04
-6.890400000000000000e+04
-7.352400000000000000e+04
-7.282000000000000000e+04
-6.771000000000000000e+04
-6.548700000000000000e+04
-6.889900000000000000e+04
-7.353500000000000000e+04
-7.285700000000000000e+04
-6.773900000000000000e+04
-6.549400000000000000e+04
-6.889100000000000000e+04
-7.354600000000000000e+04
-7.290600000000000000e+04
-6.779100000000000000e+04
-6.551200000000000000e+04
-6.888800000000000000e+04
-7.354700000000000000e+04
-7.293500000000000000e+04
-6.784200000000000000e+04
-6.553200000000000000e+04
-6.886400000000000000e+04
-7.353900000000000000e+04
-7.295900000000000000e+04
-6.788000000000000000e+04
-6.555100000000000000e+04
-6.887600000000000000e+04
-7.354600000000000000e+04
-7.299900000000000000e+04
-6.792800000000000000e+04
-6.556300000000000000e+04
-6.884900000000000000e+04
-7.354400000000000000e+04
-7.304000000000000000e+04
-6.794900000000000000e+04
-6.556400000000000000e+04
-6.884200000000000000e+04
-7.355100000000000000e+04
-7.307200000000000000e+04
-6.800600000000000000e+04
-6.557200000000000000e+04
-6.882600000000000000e+04
-7.355500000000000000e+04
-7.311300000000000000e+04
-6.805400000000000000e+04
-6.559600000000000000e+04
-6.881500000000000000e+04
-7.356000000000000000e+04
-7.314900000000000000e+04
-6.809900000000000000e+04
-6.561400000000000000e+04
-6.881500000000000000e+04
-7.356300000000000000e+04
-7.319100000000000000e+04
-6.814700000000000000e+04
-6.561400000000000000e+04
-6.879700000000000000e+04
-7.357400000000000000e+04
-7.322900000000000000e+04
-6.819100000000000000e+04
-6.563400000000000000e+04
-6.878100000000000000e+04
-7.357400000000000000e+04
-7.324700000000000000e+04
-6.822600000000000000e+04
-6.564400000000000000e+04
-6.877100000000000000e+04
-7.357200000000000000e+04
-7.327900000000000000e+04
-6.826600000000000000e+04
-6.566600000000000000e+04
-6.876900000000000000e+04
-7.357400000000000000e+04
-7.331200000000000000e+04
-6.830900000000000000e+04
-6.567200000000000000e+04
-6.875200000000000000e+04
-7.357200000000000000e+04
-7.334300000000000000e+04
-6.834900000000000000e+04
-6.568500000000000000e+04
-6.874100000000000000e+04
-7.355600000000000000e+04
-7.336600000000000000e+04
-6.839100000000000000e+04
-6.569600000000000000e+04
-6.871600000000000000e+04
-7.355900000000000000e+04
-7.339200000000000000e+04
-6.842600000000000000e+04
-6.569500000000000000e+04
-6.870200000000000000e+04
-7.353800000000000000e+04
-7.341400000000000000e+04
-6.845600000000000000e+04
-6.570100000000000000e+04
-6.867800000000000000e+04
-7.353400000000000000e+04
-7.343700000000000000e+04
-6.849200000000000000e+04
-6.570400000000000000e+04
-6.866000000000000000e+04
-7.352900000000000000e+04
-7.346600000000000000e+04
-6.853200000000000000e+04
-6.571200000000000000e+04
-6.863800000000000000e+04
-7.352700000000000000e+04
-7.349200000000000000e+04
-6.856800000000000000e+04
-6.573200000000000000e+04
-6.862600000000000000e+04
-7.351400000000000000e+04
-7.350400000000000000e+04
-6.860100000000000000e+04
-6.574000000000000000e+04
-6.863200000000000000e+04
-7.352600000000000000e+04
-7.354200000000000000e+04
-6.864600000000000000e+04
-6.574300000000000000e+04
-6.860600000000000000e+04
-7.350900000000000000e+04
-7.356600000000000000e+04
-6.867200000000000000e+04
-6.574600000000000000e+04
-6.857800000000000000e+04
-7.350600000000000000e+04
-7.359000000000000000e+04
-6.871800000000000000e+04
-6.575800000000000000e+04
-6.856100000000000000e+04
-7.349300000000000000e+04
-7.362400000000000000e+04
-6.876600000000000000e+04
-6.578200000000000000e+04
-6.854300000000000000e+04
-7.347900000000000000e+04
-7.364600000000000000e+04
-6.881000000000000000e+04
-6.578700000000000000e+04
-6.853500000000000000e+04
-7.349400000000000000e+04
-7.368200000000000000e+04
-6.884000000000000000e+04
-6.579900000000000000e+04
-6.852000000000000000e+04
-7.348400000000000000e+04
-7.370100000000000000e+04
-6.887200000000000000e+04
-6.580200000000000000e+04
-6.850700000000000000e+04
-7.347700000000000000e+04
-7.372300000000000000e+04
-6.892200000000000000e+04
-6.581400000000000000e+04
-6.849200000000000000e+04
-7.347100000000000000e+04
-7.375100000000000000e+04
-6.894600000000000000e+04
-6.582100000000000000e+04
-6.846300000000000000e+04
-7.344700000000000000e+04
-7.376700000000000000e+04
-6.899200000000000000e+04
-6.583900000000000000e+04
-6.845900000000000000e+04
-7.345000000000000000e+04
-7.379500000000000000e+04
-6.903000000000000000e+04
-6.584600000000000000e+04
-6.843600000000000000e+04
-7.342400000000000000e+04
-7.381600000000000000e+04
-6.906600000000000000e+04
-6.585100000000000000e+04
-6.841500000000000000e+04
-7.343400000000000000e+04
-7.383200000000000000e+04
-6.909100000000000000e+04
-6.585200000000000000e+04
-6.839400000000000000e+04
-7.341100000000000000e+04
-7.385100000000000000e+04
-6.913400000000000000e+04
-6.586400000000000000e+04
-6.838100000000000000e+04
-7.338400000000000000e+04
-7.386500000000000000e+04
-6.916300000000000000e+04
-6.587400000000000000e+04
-6.835600000000000000e+04
-7.338100000000000000e+04
-7.389100000000000000e+04
-6.920100000000000000e+04
-6.587900000000000000e+04
-6.833300000000000000e+04
-7.337600000000000000e+04
-7.391900000000000000e+04
-6.923200000000000000e+04
-6.588200000000000000e+04
-6.831400000000000000e+04
-7.335700000000000000e+04
-7.393600000000000000e+04
-6.926600000000000000e+04
-6.589500000000000000e+04
-6.830800000000000000e+04
-7.336200000000000000e+04
-7.395300000000000000e+04
-6.929700000000000000e+04
-6.590700000000000000e+04
-6.828300000000000000e+04
-7.333400000000000000e+04
-7.396700000000000000e+04
-6.933800000000000000e+04
-6.592600000000000000e+04
-6.827600000000000000e+04
-7.332900000000000000e+04
-7.399600000000000000e+04
-6.937000000000000000e+04
-6.592200000000000000e+04
-6.824300000000000000e+04
-7.331300000000000000e+04
-7.401600000000000000e+04
-6.941100000000000000e+04
-6.591300000000000000e+04
-6.821600000000000000e+04
-7.328900000000000000e+04
-7.402100000000000000e+04
-6.942900000000000000e+04
-6.592600000000000000e+04
-6.819600000000000000e+04
-7.326700000000000000e+04
-7.402900000000000000e+04
-6.946600000000000000e+04
-6.593200000000000000e+04
-6.557800000000000000e+04
-6.476700000000000000e+04
-5.996400000000000000e+04
-5.812800000000000000e+04
-6.139400000000000000e+04
-6.564200000000000000e+04
-6.486600000000000000e+04
-5.999100000000000000e+04
-5.805900000000000000e+04
-6.138100000000000000e+04
-6.562100000000000000e+04
-6.482900000000000000e+04
-6.005800000000000000e+04
-5.816600000000000000e+04
-6.133100000000000000e+04
-6.564300000000000000e+04
-6.488800000000000000e+04
-6.006900000000000000e+04
-5.800100000000000000e+04
-6.125900000000000000e+04
-6.569100000000000000e+04
-6.498800000000000000e+04
-6.019100000000000000e+04
-5.820100000000000000e+04
-6.144200000000000000e+04
-6.573900000000000000e+04
-6.503700000000000000e+04
-6.026200000000000000e+04
-5.824300000000000000e+04
-6.151500000000000000e+04
-6.574400000000000000e+04
-6.505200000000000000e+04
-6.025700000000000000e+04
-5.821100000000000000e+04
-6.141600000000000000e+04
-6.572700000000000000e+04
-6.505900000000000000e+04
-6.023800000000000000e+04
-5.813900000000000000e+04
-6.125700000000000000e+04
-6.546200000000000000e+04
-6.476300000000000000e+04
-5.996700000000000000e+04
-5.794400000000000000e+04
-6.118300000000000000e+04
-6.551600000000000000e+04
-6.488500000000000000e+04
-6.018100000000000000e+04
-5.815000000000000000e+04
-6.135300000000000000e+04
-6.572700000000000000e+04
-6.517100000000000000e+04
-6.045300000000000000e+04
-5.828200000000000000e+04
-6.144400000000000000e+04
-6.582600000000000000e+04
-6.526700000000000000e+04
-6.051200000000000000e+04
-5.835900000000000000e+04
-6.144600000000000000e+04
-6.583300000000000000e+04
-6.529600000000000000e+04
-6.056900000000000000e+04
-5.842700000000000000e+04
-6.145300000000000000e+04
-6.580900000000000000e+04
-6.532200000000000000e+04
-6.059700000000000000e+04
-5.837500000000000000e+04
-6.147100000000000000e+04
-6.587800000000000000e+04
-6.538600000000000000e+04
-6.066400000000000000e+04
-5.845900000000000000e+04
-6.150600000000000000e+04
-6.589300000000000000e+04
-6.541700000000000000e+04
-6.069200000000000000e+04
-5.847600000000000000e+04
-6.153800000000000000e+04
-6.599700000000000000e+04
-6.547900000000000000e+04
-6.067900000000000000e+04
-5.846900000000000000e+04
-6.152200000000000000e+04
-6.593700000000000000e+04
-6.549400000000000000e+04
-6.080200000000000000e+04
-5.853000000000000000e+04
-6.157900000000000000e+04
-6.622600000000000000e+04
-6.563800000000000000e+04
-6.097200000000000000e+04
-5.880200000000000000e+04
-6.162600000000000000e+04
-6.599200000000000000e+04
-6.558600000000000000e+04
-6.088300000000000000e+04
-5.860100000000000000e+04
-6.159700000000000000e+04
-6.604600000000000000e+04
-6.565000000000000000e+04
-6.135600000000000000e+04
-5.898000000000000000e+04
-6.161200000000000000e+04
-6.606100000000000000e+04
-6.568600000000000000e+04
-6.103100000000000000e+04
-5.867900000000000000e+04
-6.158300000000000000e+04
-6.603100000000000000e+04
-6.569200000000000000e+04
-6.105900000000000000e+04
-5.866600000000000000e+04
-6.156300000000000000e+04
-6.604900000000000000e+04
-6.576600000000000000e+04
-6.109200000000000000e+04
-5.869400000000000000e+04
-6.156400000000000000e+04
-6.605700000000000000e+04
-6.582200000000000000e+04
-6.107100000000000000e+04
-5.865400000000000000e+04
-6.158100000000000000e+04
-6.607000000000000000e+04
-6.581600000000000000e+04
-6.114700000000000000e+04
-5.870900000000000000e+04
-6.159200000000000000e+04
-6.607200000000000000e+04
-6.586700000000000000e+04
-6.119900000000000000e+04
-5.871500000000000000e+04
-6.158900000000000000e+04
-6.609100000000000000e+04
-6.587200000000000000e+04
-6.122900000000000000e+04
-5.871700000000000000e+04
-6.155800000000000000e+04
-6.608100000000000000e+04
-6.592200000000000000e+04
-6.126900000000000000e+04
-5.872900000000000000e+04
-6.155500000000000000e+04
-6.613400000000000000e+04
-6.595200000000000000e+04
-6.125200000000000000e+04
-5.871700000000000000e+04
-6.151700000000000000e+04
-6.606800000000000000e+04
-6.595400000000000000e+04
-6.131100000000000000e+04
-5.875000000000000000e+04
-6.153700000000000000e+04
-6.609800000000000000e+04
-6.599100000000000000e+04
-6.135400000000000000e+04
-5.875000000000000000e+04
-6.154400000000000000e+04
-6.612600000000000000e+04
-6.601600000000000000e+04
-6.142400000000000000e+04
-5.875400000000000000e+04
-6.141400000000000000e+04
-6.605800000000000000e+04
-6.607300000000000000e+04
-6.160400000000000000e+04
-5.874400000000000000e+04
-6.147500000000000000e+04
-6.607400000000000000e+04
-6.604900000000000000e+04
-6.140100000000000000e+04
-5.871300000000000000e+04
-6.146000000000000000e+04
-6.606700000000000000e+04
-6.606200000000000000e+04
-6.142600000000000000e+04
-5.871100000000000000e+04
-6.142900000000000000e+04
-6.608400000000000000e+04
-6.609600000000000000e+04
-6.142500000000000000e+04
-5.872800000000000000e+04
-6.138700000000000000e+04
-6.599800000000000000e+04
-6.606400000000000000e+04
-6.143100000000000000e+04
-5.866100000000000000e+04
-6.135600000000000000e+04
-6.603600000000000000e+04
-6.609900000000000000e+04
-6.151900000000000000e+04
-5.870500000000000000e+04
-6.132100000000000000e+04
-6.601700000000000000e+04
-6.609100000000000000e+04
-6.148100000000000000e+04
-5.868500000000000000e+04
-6.132400000000000000e+04
-6.606900000000000000e+04
-6.615900000000000000e+04
-6.143900000000000000e+04
-5.862000000000000000e+04
-6.127200000000000000e+04
-6.598700000000000000e+04
-6.613900000000000000e+04
-6.152900000000000000e+04
-5.865300000000000000e+04
-6.127100000000000000e+04
-6.600400000000000000e+04
-6.619200000000000000e+04
-6.156600000000000000e+04
-5.866600000000000000e+04
-6.125200000000000000e+04
-6.597900000000000000e+04
-6.619700000000000000e+04
-6.160300000000000000e+04
-5.865100000000000000e+04
-6.126000000000000000e+04
-6.600100000000000000e+04
-6.622200000000000000e+04
-6.161100000000000000e+04
-5.867700000000000000e+04
-6.127600000000000000e+04
-6.601400000000000000e+04
-6.617400000000000000e+04
-6.160600000000000000e+04
-5.864400000000000000e+04
-6.121600000000000000e+04
-6.598100000000000000e+04
-6.623300000000000000e+04
-6.166300000000000000e+04
-5.868300000000000000e+04
-6.117500000000000000e+04
-6.594200000000000000e+04
-6.626600000000000000e+04
-6.166500000000000000e+04
-5.861200000000000000e+04
-6.117000000000000000e+04
-6.595000000000000000e+04
-6.617300000000000000e+04
-6.164000000000000000e+04
-5.860500000000000000e+04
-6.110700000000000000e+04
-6.591500000000000000e+04
-6.625700000000000000e+04
-6.170000000000000000e+04
-5.863100000000000000e+04
-6.109100000000000000e+04
-6.588000000000000000e+04
-6.626200000000000000e+04
-6.171100000000000000e+04
-5.861400000000000000e+04
-6.106700000000000000e+04
-6.589700000000000000e+04
-6.633800000000000000e+04
-6.174200000000000000e+04
-5.894600000000000000e+04
-6.126400000000000000e+04
-6.588900000000000000e+04
-6.639100000000000000e+04
-6.174200000000000000e+04
-5.857400000000000000e+04
-6.098900000000000000e+04
-6.582600000000000000e+04
-6.628400000000000000e+04
-6.176600000000000000e+04
-5.860500000000000000e+04
-6.099200000000000000e+04
-6.585200000000000000e+04
-6.635600000000000000e+04
-6.173700000000000000e+04
-5.857700000000000000e+04
-6.096400000000000000e+04
-6.579600000000000000e+04
-6.631600000000000000e+04
-6.181600000000000000e+04
-5.861500000000000000e+04
-6.097300000000000000e+04
-6.580100000000000000e+04
-6.631800000000000000e+04
-6.182400000000000000e+04
-5.862800000000000000e+04
-6.097100000000000000e+04
-6.578700000000000000e+04
-6.634000000000000000e+04
-6.188700000000000000e+04
-5.861800000000000000e+04
-6.094300000000000000e+04
-6.576000000000000000e+04
-6.632400000000000000e+04
-6.191500000000000000e+04
-5.861500000000000000e+04
-6.088400000000000000e+04
-6.573900000000000000e+04
-6.632100000000000000e+04
-6.189400000000000000e+04
-5.864100000000000000e+04
-6.089100000000000000e+04
-6.574400000000000000e+04
-6.634900000000000000e+04
-6.189900000000000000e+04
-5.863600000000000000e+04
-6.088000000000000000e+04
-6.574000000000000000e+04
-6.636100000000000000e+04
-6.193600000000000000e+04
-5.863100000000000000e+04
-6.087900000000000000e+04
-6.578000000000000000e+04
-6.631600000000000000e+04
-6.192400000000000000e+04
-5.861800000000000000e+04
-6.084000000000000000e+04
-6.566700000000000000e+04
-6.637100000000000000e+04
-6.198200000000000000e+04
-5.864400000000000000e+04
-6.081600000000000000e+04
-6.586700000000000000e+04
-6.652400000000000000e+04
-6.201500000000000000e+04
-5.863200000000000000e+04
-6.080400000000000000e+04
-6.568100000000000000e+04
-6.642100000000000000e+04
-6.205700000000000000e+04
-5.860600000000000000e+04
-6.072400000000000000e+04
-6.561600000000000000e+04
-6.635700000000000000e+04
-6.200500000000000000e+04
-5.867200000000000000e+04
-6.081100000000000000e+04
-6.560100000000000000e+04
-6.637000000000000000e+04
-6.202700000000000000e+04
-5.862900000000000000e+04
-6.075300000000000000e+04
-6.561800000000000000e+04
-6.642700000000000000e+04
-6.208200000000000000e+04
-5.866200000000000000e+04
-6.067900000000000000e+04
-6.548700000000000000e+04
-6.633100000000000000e+04
-6.205200000000000000e+04
-5.861900000000000000e+04
-6.068300000000000000e+04
-6.552200000000000000e+04
-6.637200000000000000e+04
-6.204400000000000000e+04
-5.858600000000000000e+04
-6.065600000000000000e+04
-6.550900000000000000e+04
-6.635700000000000000e+04
-6.206100000000000000e+04
-5.860100000000000000e+04
-6.064700000000000000e+04
-6.551100000000000000e+04
-6.640600000000000000e+04
-6.198700000000000000e+04
-5.852900000000000000e+04
-6.055800000000000000e+04
-6.540200000000000000e+04
-6.632600000000000000e+04
-6.202300000000000000e+04
-5.851400000000000000e+04
-6.052200000000000000e+04
-6.535600000000000000e+04
-6.638600000000000000e+04
-6.227800000000000000e+04
-5.859100000000000000e+04
-6.045300000000000000e+04
-6.530700000000000000e+04
-6.625400000000000000e+04
-6.201300000000000000e+04
-5.848700000000000000e+04
-6.044500000000000000e+04
-6.529400000000000000e+04
-6.623800000000000000e+04
-6.202500000000000000e+04
-5.850500000000000000e+04
-6.044500000000000000e+04
-6.539400000000000000e+04
-6.635700000000000000e+04
-6.201400000000000000e+04
-5.839500000000000000e+04
-6.032900000000000000e+04
-6.530800000000000000e+04
-6.644800000000000000e+04
-6.243700000000000000e+04
-5.849600000000000000e+04
-6.035800000000000000e+04
-6.512100000000000000e+04
-6.611200000000000000e+04
-6.194200000000000000e+04
-5.835600000000000000e+04
-6.025100000000000000e+04
-6.508700000000000000e+04
-6.609400000000000000e+04
-6.195000000000000000e+04
-5.828200000000000000e+04
-6.017100000000000000e+04
-6.504300000000000000e+04
-6.610200000000000000e+04
-6.185100000000000000e+04
-5.823900000000000000e+04
-6.010800000000000000e+04
-6.498200000000000000e+04
-6.605400000000000000e+04
-6.186300000000000000e+04
-5.823600000000000000e+04
-6.007500000000000000e+04
-6.492900000000000000e+04
-6.602100000000000000e+04
-6.187400000000000000e+04
-5.818700000000000000e+04
-6.000000000000000000e+04
-6.485900000000000000e+04
-6.594000000000000000e+04
-6.183100000000000000e+04
-5.816100000000000000e+04
-6.001400000000000000e+04
-6.479400000000000000e+04
-6.582200000000000000e+04
-6.175600000000000000e+04
-5.807900000000000000e+04
-5.986300000000000000e+04
-6.469700000000000000e+04
-6.584600000000000000e+04
-6.175600000000000000e+04
-5.803000000000000000e+04
-5.978700000000000000e+04
-6.465900000000000000e+04
-6.584400000000000000e+04
-6.174900000000000000e+04
-5.805700000000000000e+04
-5.974600000000000000e+04
-6.450600000000000000e+04
-6.572500000000000000e+04
-6.167700000000000000e+04
-5.793600000000000000e+04
-5.966700000000000000e+04
-6.445400000000000000e+04
-6.565400000000000000e+04
-6.161100000000000000e+04
-5.786200000000000000e+04
-5.956400000000000000e+04
-6.442700000000000000e+04
-6.563900000000000000e+04
-6.160900000000000000e+04
-5.783700000000000000e+04
-5.946900000000000000e+04
-6.432600000000000000e+04
-6.557300000000000000e+04
-6.157900000000000000e+04
-5.785700000000000000e+04
-5.933400000000000000e+04
-6.420100000000000000e+04
-6.546500000000000000e+04
-6.146200000000000000e+04
-5.766800000000000000e+04
-5.930200000000000000e+04
-6.415500000000000000e+04
-6.545100000000000000e+04
-6.144400000000000000e+04
-5.763500000000000000e+04
-5.924000000000000000e+04
-6.408100000000000000e+04
-6.540600000000000000e+04
-6.141600000000000000e+04
-5.759800000000000000e+04
-5.937500000000000000e+04
-6.398100000000000000e+04
-6.527300000000000000e+04
-6.132700000000000000e+04
-5.747700000000000000e+04
-5.905600000000000000e+04
-6.390900000000000000e+04
-6.526300000000000000e+04
-6.129500000000000000e+04
-5.743100000000000000e+04
-5.896100000000000000e+04
-6.382600000000000000e+04
-6.520400000000000000e+04
-6.127000000000000000e+04
-5.741700000000000000e+04
-5.889800000000000000e+04
-6.378800000000000000e+04
-6.508800000000000000e+04
-6.115800000000000000e+04
-5.730600000000000000e+04
-5.882600000000000000e+04
-6.364100000000000000e+04
-6.510700000000000000e+04
-6.119000000000000000e+04
-5.721600000000000000e+04
-5.871800000000000000e+04
-6.358700000000000000e+04
-6.502700000000000000e+04
-6.112300000000000000e+04
-5.720100000000000000e+04
-5.867300000000000000e+04
-6.358400000000000000e+04
-6.503400000000000000e+04
-6.096300000000000000e+04
-5.707900000000000000e+04
-5.855600000000000000e+04
-6.340700000000000000e+04
-6.490400000000000000e+04
-6.104600000000000000e+04
-5.706900000000000000e+04
-5.854100000000000000e+04
-6.352100000000000000e+04
-6.492400000000000000e+04
-6.098400000000000000e+04
-5.701800000000000000e+04
-5.841600000000000000e+04
-6.327600000000000000e+04
-6.478200000000000000e+04
-6.092900000000000000e+04
-5.701200000000000000e+04
-5.832600000000000000e+04
-6.315400000000000000e+04
-6.472200000000000000e+04
-6.088700000000000000e+04
-5.692200000000000000e+04
-5.828300000000000000e+04
-6.311200000000000000e+04
-6.467200000000000000e+04
-6.086200000000000000e+04
-5.684400000000000000e+04
-5.824500000000000000e+04
-6.304600000000000000e+04
-6.460000000000000000e+04
-6.082100000000000000e+04
-5.681900000000000000e+04
-5.820000000000000000e+04
-6.297300000000000000e+04
-6.457700000000000000e+04
-6.079600000000000000e+04
-5.672700000000000000e+04
-5.803600000000000000e+04
-6.287600000000000000e+04
-6.452300000000000000e+04
-6.076700000000000000e+04
-5.669700000000000000e+04
-5.798600000000000000e+04
-6.283600000000000000e+04
-6.449500000000000000e+04
-6.075200000000000000e+04
-5.672900000000000000e+04
-5.791900000000000000e+04
-6.272300000000000000e+04
-6.442600000000000000e+04
-6.071100000000000000e+04
-5.663900000000000000e+04
-5.790600000000000000e+04
-6.272700000000000000e+04
-6.442700000000000000e+04
-6.069400000000000000e+04
-5.658100000000000000e+04
-5.783600000000000000e+04
-6.265100000000000000e+04
-6.437600000000000000e+04
-6.066000000000000000e+04
-5.657400000000000000e+04
-5.784900000000000000e+04
-6.254600000000000000e+04
-6.426700000000000000e+04
-6.061900000000000000e+04
-5.652300000000000000e+04
-5.770400000000000000e+04
-6.251000000000000000e+04
-6.428300000000000000e+04
-6.060600000000000000e+04
-5.660000000000000000e+04
-5.787200000000000000e+04
-6.248600000000000000e+04
-6.425200000000000000e+04
-6.059500000000000000e+04
-5.646200000000000000e+04
-5.759900000000000000e+04
-6.240800000000000000e+04
-6.422100000000000000e+04
-6.060000000000000000e+04
-5.650000000000000000e+04
-5.759200000000000000e+04
-6.231600000000000000e+04
-6.415600000000000000e+04
-6.057500000000000000e+04
-5.640600000000000000e+04
-5.753600000000000000e+04
-6.233100000000000000e+04
-6.415800000000000000e+04
-6.061100000000000000e+04
-5.641900000000000000e+04
-5.746400000000000000e+04
-6.227200000000000000e+04
-6.415600000000000000e+04
-6.070200000000000000e+04
-5.650500000000000000e+04
-5.746100000000000000e+04
-6.220400000000000000e+04
-6.407700000000000000e+04
-6.053100000000000000e+04
-5.634100000000000000e+04
-5.740800000000000000e+04
-6.221700000000000000e+04
-6.404900000000000000e+04
-6.050100000000000000e+04
-5.630600000000000000e+04
-5.733900000000000000e+04
-6.211600000000000000e+04
-6.406900000000000000e+04
-6.054400000000000000e+04
-5.630500000000000000e+04
-5.732700000000000000e+04
-6.208900000000000000e+04
-6.404100000000000000e+04
-6.055100000000000000e+04
-5.634100000000000000e+04
-5.732700000000000000e+04
-6.198300000000000000e+04
-6.394100000000000000e+04
-6.051900000000000000e+04
-5.628400000000000000e+04
-5.721600000000000000e+04
-6.199300000000000000e+04
-6.397000000000000000e+04
-6.049700000000000000e+04
-5.626400000000000000e+04
-5.721700000000000000e+04
-6.197900000000000000e+04
-6.399400000000000000e+04
-6.052000000000000000e+04
-5.626600000000000000e+04
-5.718100000000000000e+04
-6.186900000000000000e+04
-6.393400000000000000e+04
-6.057200000000000000e+04
-5.634000000000000000e+04
-5.720900000000000000e+04
-6.190600000000000000e+04
-6.388900000000000000e+04
-6.048700000000000000e+04
-5.623200000000000000e+04
-5.731700000000000000e+04
-6.194600000000000000e+04
-6.396700000000000000e+04
-6.051700000000000000e+04
-5.613700000000000000e+04
-5.704700000000000000e+04
-6.181400000000000000e+04
-6.388700000000000000e+04
-6.050700000000000000e+04
-5.621100000000000000e+04
-5.709300000000000000e+04
-6.183000000000000000e+04
-6.389900000000000000e+04
-6.055200000000000000e+04
-5.621100000000000000e+04
-5.704200000000000000e+04
-6.179200000000000000e+04
-6.390500000000000000e+04
-6.053900000000000000e+04
-5.624600000000000000e+04
-5.709800000000000000e+04
-6.171900000000000000e+04
-6.388100000000000000e+04
-6.056700000000000000e+04
-5.624200000000000000e+04
-5.705000000000000000e+04
-6.178600000000000000e+04
-6.393600000000000000e+04
-6.059800000000000000e+04
-5.626100000000000000e+04
-5.705500000000000000e+04
-6.177300000000000000e+04
-6.393700000000000000e+04
-6.064500000000000000e+04
-5.626400000000000000e+04
-5.705300000000000000e+04
-6.178600000000000000e+04
-6.391100000000000000e+04
-6.066100000000000000e+04
-5.630400000000000000e+04
-5.701400000000000000e+04
-6.173600000000000000e+04
-6.396700000000000000e+04
-6.069000000000000000e+04
-5.628000000000000000e+04
-5.703300000000000000e+04
-6.172200000000000000e+04
-6.395700000000000000e+04
-6.071400000000000000e+04
-5.631200000000000000e+04
-5.700400000000000000e+04
-6.172300000000000000e+04
-6.403700000000000000e+04
-6.080100000000000000e+04
-5.630400000000000000e+04
-5.698600000000000000e+04
-6.168800000000000000e+04
-6.395500000000000000e+04
-6.075300000000000000e+04
-5.634100000000000000e+04
-5.699400000000000000e+04
-6.168600000000000000e+04
-6.397500000000000000e+04
-6.078400000000000000e+04
-5.635700000000000000e+04
-5.698200000000000000e+04
-6.166600000000000000e+04
-6.400400000000000000e+04
-6.085200000000000000e+04
-5.639400000000000000e+04
-5.693700000000000000e+04
-6.164400000000000000e+04
-6.394300000000000000e+04
-6.077400000000000000e+04
-5.633600000000000000e+04
-5.693300000000000000e+04
-6.160900000000000000e+04
-6.397800000000000000e+04
-6.082800000000000000e+04
-5.637200000000000000e+04
-5.693800000000000000e+04
-6.177000000000000000e+04
-6.411100000000000000e+04
-6.084400000000000000e+04
-5.631700000000000000e+04
-5.688800000000000000e+04
-6.155100000000000000e+04
-6.395400000000000000e+04
-6.086200000000000000e+04
-5.636700000000000000e+04
-5.689600000000000000e+04
-6.153400000000000000e+04
-6.396600000000000000e+04
-6.088200000000000000e+04
-5.639200000000000000e+04
-5.690700000000000000e+04
-6.157700000000000000e+04
-6.403800000000000000e+04
-6.094100000000000000e+04
-5.643200000000000000e+04
-5.684400000000000000e+04
-6.147600000000000000e+04
-6.399900000000000000e+04
-6.095600000000000000e+04
-5.645200000000000000e+04
-5.690900000000000000e+04
-6.150400000000000000e+04
-6.399000000000000000e+04
-6.097700000000000000e+04
-5.646600000000000000e+04
-5.690000000000000000e+04
-6.153600000000000000e+04
-6.405200000000000000e+04
-6.106000000000000000e+04
-5.652900000000000000e+04
-5.686600000000000000e+04
-6.150200000000000000e+04
-6.404400000000000000e+04
-6.106100000000000000e+04
-5.651900000000000000e+04
-5.691600000000000000e+04
-6.166700000000000000e+04
-6.410700000000000000e+04
-6.109600000000000000e+04
-5.656300000000000000e+04
-5.694800000000000000e+04
-6.151100000000000000e+04
-6.419200000000000000e+04
-6.130900000000000000e+04
-5.659100000000000000e+04
-5.695500000000000000e+04
-6.148700000000000000e+04
-6.408400000000000000e+04
-6.113600000000000000e+04
-5.654900000000000000e+04
-5.688200000000000000e+04
-6.147300000000000000e+04
-6.408900000000000000e+04
-6.120400000000000000e+04
-5.665100000000000000e+04
-5.688300000000000000e+04
-6.146000000000000000e+04
-6.412000000000000000e+04
-6.121300000000000000e+04
-5.665100000000000000e+04
-5.696700000000000000e+04
-6.143400000000000000e+04
-6.412100000000000000e+04
-6.123800000000000000e+04
-5.662700000000000000e+04
-5.689500000000000000e+04
-6.146500000000000000e+04
-6.415200000000000000e+04
-6.124300000000000000e+04
-5.665200000000000000e+04
-5.689100000000000000e+04
-6.144300000000000000e+04
-6.415100000000000000e+04
-6.140500000000000000e+04
-5.691200000000000000e+04
-5.688000000000000000e+04
-6.142200000000000000e+04
-6.418900000000000000e+04
-6.132200000000000000e+04
-5.664700000000000000e+04
-5.685700000000000000e+04
-6.146600000000000000e+04
-6.423500000000000000e+04
-6.138800000000000000e+04
-5.669100000000000000e+04
-5.687600000000000000e+04
-6.146600000000000000e+04
-6.425100000000000000e+04
-6.146400000000000000e+04
-5.679900000000000000e+04
-5.679400000000000000e+04
-6.138600000000000000e+04
-6.422800000000000000e+04
-6.144000000000000000e+04
-5.675200000000000000e+04
-5.686000000000000000e+04
-6.144600000000000000e+04
-6.426300000000000000e+04
-6.147900000000000000e+04
-5.680800000000000000e+04
-5.688400000000000000e+04
-6.140400000000000000e+04
-6.427900000000000000e+04
-6.151400000000000000e+04
-5.682900000000000000e+04
-5.686700000000000000e+04
-6.139100000000000000e+04
-6.427200000000000000e+04
-6.156200000000000000e+04
-5.685400000000000000e+04
-5.686800000000000000e+04
-6.142700000000000000e+04
-6.432500000000000000e+04
-6.160000000000000000e+04
-5.685200000000000000e+04
-5.688800000000000000e+04
-6.144800000000000000e+04
-6.436600000000000000e+04
-6.167700000000000000e+04
-5.689300000000000000e+04
-5.688900000000000000e+04
-6.145200000000000000e+04
-6.432100000000000000e+04
-6.163300000000000000e+04
-5.696300000000000000e+04
-5.707600000000000000e+04
-6.144200000000000000e+04
-6.439400000000000000e+04
-6.171300000000000000e+04
-5.694900000000000000e+04
-5.695900000000000000e+04
-6.140200000000000000e+04
-6.437800000000000000e+04
-6.174600000000000000e+04
-5.700200000000000000e+04
-5.694500000000000000e+04
-6.140900000000000000e+04
-6.438900000000000000e+04
-6.176800000000000000e+04
-5.697600000000000000e+04
-5.690900000000000000e+04
-6.145000000000000000e+04
-6.450100000000000000e+04
-6.178900000000000000e+04
-5.697800000000000000e+04
-5.690500000000000000e+04
-6.145700000000000000e+04
-6.451100000000000000e+04
-6.185900000000000000e+04
-5.701900000000000000e+04
-5.692100000000000000e+04
-6.144400000000000000e+04
-6.450700000000000000e+04
-6.190800000000000000e+04
-5.706700000000000000e+04
-5.690600000000000000e+04
-6.142300000000000000e+04
-6.452800000000000000e+04
-6.196400000000000000e+04
-5.711500000000000000e+04
-5.696700000000000000e+04
-6.140500000000000000e+04
-6.449400000000000000e+04
-6.196200000000000000e+04
-5.728700000000000000e+04
-5.740500000000000000e+04
-6.164200000000000000e+04
-6.458100000000000000e+04
-6.201900000000000000e+04
-5.712600000000000000e+04
-5.691400000000000000e+04
-6.140400000000000000e+04
-6.461100000000000000e+04
-6.208600000000000000e+04
-5.719400000000000000e+04
-5.694600000000000000e+04
-6.135400000000000000e+04
-6.459800000000000000e+04
-6.209800000000000000e+04
-5.719400000000000000e+04
-5.692600000000000000e+04
-6.141300000000000000e+04
-6.464200000000000000e+04
-6.216400000000000000e+04
-5.722200000000000000e+04
-5.687400000000000000e+04
-6.136700000000000000e+04
-6.464900000000000000e+04
-6.220200000000000000e+04
-5.723300000000000000e+04
-5.693900000000000000e+04
-6.135100000000000000e+04
-6.462200000000000000e+04
-6.222400000000000000e+04
-5.724700000000000000e+04
-5.685900000000000000e+04
-6.131900000000000000e+04
-6.466200000000000000e+04
-6.226100000000000000e+04
-5.725900000000000000e+04
-5.684600000000000000e+04
-6.135400000000000000e+04
-6.489400000000000000e+04
-6.234300000000000000e+04
-5.729200000000000000e+04
-5.697400000000000000e+04
-6.151100000000000000e+04
-6.477700000000000000e+04
-6.229200000000000000e+04
-5.726100000000000000e+04
-5.682200000000000000e+04
-6.129600000000000000e+04
-6.472600000000000000e+04
-6.242000000000000000e+04
-5.739000000000000000e+04
-5.685700000000000000e+04
-6.128700000000000000e+04
-6.473200000000000000e+04
-6.248000000000000000e+04
-5.744600000000000000e+04
-5.686500000000000000e+04
-6.126600000000000000e+04
-6.479900000000000000e+04
-6.260100000000000000e+04
-5.741600000000000000e+04
-5.688600000000000000e+04
-6.144100000000000000e+04
-6.478500000000000000e+04
-6.254800000000000000e+04
-5.745500000000000000e+04
-5.690900000000000000e+04
-6.130200000000000000e+04
-6.484900000000000000e+04
-6.256100000000000000e+04
-5.753600000000000000e+04
-5.697100000000000000e+04
-6.142500000000000000e+04
-6.510100000000000000e+04
-6.272700000000000000e+04
-5.759800000000000000e+04
-5.713100000000000000e+04
-6.166800000000000000e+04
-6.514600000000000000e+04
-6.292000000000000000e+04
-5.767000000000000000e+04
-5.689500000000000000e+04
-6.163000000000000000e+04
-6.524600000000000000e+04
-6.318600000000000000e+04
-5.804200000000000000e+04
-5.726400000000000000e+04
-6.172100000000000000e+04
-6.555800000000000000e+04
-6.363100000000000000e+04
-5.904100000000000000e+04
-5.828100000000000000e+04
-6.251200000000000000e+04
-6.675900000000000000e+04
-6.455400000000000000e+04
-5.853400000000000000e+04
-5.791100000000000000e+04
-6.297400000000000000e+04
-6.736000000000000000e+04
-6.537000000000000000e+04
-5.972200000000000000e+04
-5.833200000000000000e+04
-6.254700000000000000e+04
-6.647100000000000000e+04
-6.447700000000000000e+04
-5.945400000000000000e+04
-5.890700000000000000e+04
-6.339400000000000000e+04
-6.703300000000000000e+04
-6.524900000000000000e+04
-6.040100000000000000e+04
-5.957300000000000000e+04
-6.404400000000000000e+04
-6.805300000000000000e+04
-6.601400000000000000e+04
-6.088200000000000000e+04
-5.950700000000000000e+04
-6.364300000000000000e+04
-6.759800000000000000e+04
-6.574600000000000000e+04
-6.062200000000000000e+04
-5.989200000000000000e+04
-6.461200000000000000e+04
-6.810900000000000000e+04
-6.583500000000000000e+04
-6.083300000000000000e+04
-6.059200000000000000e+04
-6.470300000000000000e+04
-6.780700000000000000e+04
-6.543200000000000000e+04
-6.059600000000000000e+04
-5.970700000000000000e+04
-6.385700000000000000e+04
-6.752100000000000000e+04
-6.593800000000000000e+04
-6.097700000000000000e+04
-5.960200000000000000e+04
-6.411600000000000000e+04
-6.802200000000000000e+04
-6.584600000000000000e+04
-6.066400000000000000e+04
-5.983200000000000000e+04
-6.444400000000000000e+04
-6.806000000000000000e+04
-6.585900000000000000e+04
-6.055700000000000000e+04
-5.912000000000000000e+04
-6.344000000000000000e+04
-6.755700000000000000e+04
-6.603600000000000000e+04
-6.089000000000000000e+04
-5.996700000000000000e+04
-6.377100000000000000e+04
-6.757400000000000000e+04
-6.647700000000000000e+04
-6.173600000000000000e+04
-6.045300000000000000e+04
-6.391900000000000000e+04
-6.689200000000000000e+04
-6.543200000000000000e+04
-6.265600000000000000e+04
-6.090100000000000000e+04
-6.265800000000000000e+04
-6.669500000000000000e+04
-6.605400000000000000e+04
-6.179200000000000000e+04
-6.149800000000000000e+04
-6.426000000000000000e+04
-6.812600000000000000e+04
-6.464700000000000000e+04
-5.964800000000000000e+04
-6.031600000000000000e+04
-6.438700000000000000e+04
-6.644900000000000000e+04
-6.395400000000000000e+04
-5.863700000000000000e+04
-5.839200000000000000e+04
-6.544700000000000000e+04
-6.999400000000000000e+04
-6.428200000000000000e+04
-5.728000000000000000e+04
-5.647300000000000000e+04
-6.134400000000000000e+04
-6.622100000000000000e+04
-6.543100000000000000e+04
-6.052200000000000000e+04
-5.914800000000000000e+04
-6.280900000000000000e+04
-6.749200000000000000e+04
-6.596200000000000000e+04
-5.987700000000000000e+04
-5.822600000000000000e+04
-6.276100000000000000e+04
-6.665100000000000000e+04
-6.511900000000000000e+04
-5.983700000000000000e+04
-5.864300000000000000e+04
-6.304700000000000000e+04
-6.719400000000000000e+04
-6.547700000000000000e+04
-6.024700000000000000e+04
-5.887200000000000000e+04
-6.280400000000000000e+04
-6.733400000000000000e+04
-6.634400000000000000e+04
-6.046900000000000000e+04
-5.838700000000000000e+04
-6.263200000000000000e+04
-6.750500000000000000e+04
-6.635300000000000000e+04
-6.019200000000000000e+04
-5.816300000000000000e+04
-6.245900000000000000e+04
-6.676200000000000000e+04
-6.535400000000000000e+04
-6.008400000000000000e+04
-5.875500000000000000e+04
-6.285400000000000000e+04
-6.718500000000000000e+04
-6.566800000000000000e+04
-6.020200000000000000e+04
-5.882700000000000000e+04
-6.287200000000000000e+04
-6.711200000000000000e+04
-6.568400000000000000e+04
-6.024400000000000000e+04
-5.861300000000000000e+04
-6.283600000000000000e+04
-6.699700000000000000e+04
-6.553400000000000000e+04
-6.031200000000000000e+04
-5.867700000000000000e+04
-6.252400000000000000e+04
-6.691400000000000000e+04
-6.547200000000000000e+04
-6.030100000000000000e+04
-5.852900000000000000e+04
-6.256700000000000000e+04
-6.677600000000000000e+04
-6.549000000000000000e+04
-6.026200000000000000e+04
-5.848900000000000000e+04
-6.249800000000000000e+04
-6.716400000000000000e+04
-6.553400000000000000e+04
-5.996800000000000000e+04
-5.850100000000000000e+04
-6.243000000000000000e+04
-6.661100000000000000e+04
-6.542600000000000000e+04
-6.013200000000000000e+04
-5.831400000000000000e+04
-6.226600000000000000e+04
-6.663600000000000000e+04
-6.522300000000000000e+04
-5.994500000000000000e+04
-5.849700000000000000e+04
-6.232200000000000000e+04
-6.664500000000000000e+04
-6.546100000000000000e+04
-6.006800000000000000e+04
-5.825600000000000000e+04
-6.214800000000000000e+04
-6.656600000000000000e+04
-6.535400000000000000e+04
-6.015600000000000000e+04
-5.872400000000000000e+04
-6.240600000000000000e+04
-6.645900000000000000e+04
-6.530200000000000000e+04
-6.018300000000000000e+04
-5.850800000000000000e+04
-6.227100000000000000e+04
-6.653200000000000000e+04
-6.541300000000000000e+04
-6.021200000000000000e+04
-5.848400000000000000e+04
-6.226900000000000000e+04
-6.663400000000000000e+04
-6.546200000000000000e+04
-6.027900000000000000e+04
-5.854600000000000000e+04
-6.233400000000000000e+04
-6.662600000000000000e+04
-6.540700000000000000e+04
-6.022600000000000000e+04
-5.858800000000000000e+04
-6.242400000000000000e+04
-6.663700000000000000e+04
-6.536100000000000000e+04
-6.022400000000000000e+04
-5.861200000000000000e+04
-6.243700000000000000e+04
-6.670900000000000000e+04
-6.544400000000000000e+04
-6.031200000000000000e+04
-5.867300000000000000e+04
-6.247200000000000000e+04
-6.671900000000000000e+04
-6.544200000000000000e+04
-6.027900000000000000e+04
-5.859800000000000000e+04
-6.238200000000000000e+04
-6.664200000000000000e+04
-6.536900000000000000e+04
-6.022000000000000000e+04
-5.856200000000000000e+04
-6.231300000000000000e+04
-6.655600000000000000e+04
-6.531400000000000000e+04
-6.017500000000000000e+04
-5.849400000000000000e+04
-6.227600000000000000e+04
-6.654600000000000000e+04
-6.528100000000000000e+04
-6.011200000000000000e+04
-5.842500000000000000e+04
-6.215400000000000000e+04
-6.644400000000000000e+04
-6.525000000000000000e+04
-6.011000000000000000e+04
-5.840600000000000000e+04
-6.215600000000000000e+04
-6.646700000000000000e+04
-6.528500000000000000e+04
-6.016200000000000000e+04
-5.842800000000000000e+04
-6.212800000000000000e+04
-6.641200000000000000e+04
-6.524600000000000000e+04
-6.009400000000000000e+04
-5.834100000000000000e+04
-6.203400000000000000e+04
-6.632200000000000000e+04
-6.516200000000000000e+04
-6.004700000000000000e+04
-5.827600000000000000e+04
-6.193200000000000000e+04
-6.621000000000000000e+04
-6.508800000000000000e+04
-5.998100000000000000e+04
-5.820100000000000000e+04
-6.183100000000000000e+04
-6.613500000000000000e+04
-6.506500000000000000e+04
-6.014400000000000000e+04
-5.817200000000000000e+04
-6.176500000000000000e+04
-6.609900000000000000e+04
-6.501700000000000000e+04
-5.992200000000000000e+04
-5.809400000000000000e+04
-6.170400000000000000e+04
-6.604800000000000000e+04
-6.501400000000000000e+04
-5.991100000000000000e+04
-5.804400000000000000e+04
-6.167100000000000000e+04
-6.601800000000000000e+04
-6.495500000000000000e+04
-5.988000000000000000e+04
-5.804800000000000000e+04
-6.162900000000000000e+04
-6.598400000000000000e+04
-6.497700000000000000e+04
-5.991400000000000000e+04
-5.802800000000000000e+04
-6.157900000000000000e+04
-6.593700000000000000e+04
-6.496700000000000000e+04
-5.990600000000000000e+04
-5.797500000000000000e+04
-6.151100000000000000e+04
-6.589700000000000000e+04
-6.494500000000000000e+04
-5.987300000000000000e+04
-5.793100000000000000e+04
-6.145300000000000000e+04
-6.584100000000000000e+04
-6.490700000000000000e+04
-5.984600000000000000e+04
-5.789400000000000000e+04
-6.140600000000000000e+04
-6.581700000000000000e+04
-6.504400000000000000e+04
-6.019200000000000000e+04
-5.792700000000000000e+04
-6.134700000000000000e+04
-6.576400000000000000e+04
-6.488400000000000000e+04
-5.983300000000000000e+04
-5.783400000000000000e+04
-6.130500000000000000e+04
-6.573600000000000000e+04
-6.491600000000000000e+04
-6.001800000000000000e+04
-5.782400000000000000e+04
-6.126400000000000000e+04
-6.570600000000000000e+04
-6.487900000000000000e+04
-5.982700000000000000e+04
-5.779800000000000000e+04
-6.125500000000000000e+04
-6.570400000000000000e+04
-6.489800000000000000e+04
-5.984900000000000000e+04
-5.778400000000000000e+04
-6.121100000000000000e+04
-6.568600000000000000e+04
-6.490700000000000000e+04
-5.985700000000000000e+04
-5.775100000000000000e+04
-6.118100000000000000e+04
-6.567100000000000000e+04
-6.490400000000000000e+04
-5.985900000000000000e+04
-5.774600000000000000e+04
-6.114900000000000000e+04
-6.565900000000000000e+04
-6.491500000000000000e+04
-5.985900000000000000e+04
-5.772000000000000000e+04
-6.111400000000000000e+04
-6.563100000000000000e+04
-6.490700000000000000e+04
-5.986800000000000000e+04
-5.770100000000000000e+04
-6.107800000000000000e+04
-6.560700000000000000e+04
-6.490900000000000000e+04
-5.987100000000000000e+04
-5.767700000000000000e+04
-6.103200000000000000e+04
-6.558100000000000000e+04
-6.492400000000000000e+04
-5.991700000000000000e+04
-5.770100000000000000e+04
-6.103200000000000000e+04
-6.558000000000000000e+04
-6.492500000000000000e+04
-5.988600000000000000e+04
-5.764900000000000000e+04
-6.099400000000000000e+04
-6.557100000000000000e+04
-6.494700000000000000e+04
-5.990900000000000000e+04
-5.765700000000000000e+04
-6.097000000000000000e+04
-6.559400000000000000e+04
-6.517300000000000000e+04
-5.997600000000000000e+04
-5.765400000000000000e+04
-6.095200000000000000e+04
-6.555000000000000000e+04
-6.497600000000000000e+04
-5.994200000000000000e+04
-5.763700000000000000e+04
-6.092700000000000000e+04
-6.553100000000000000e+04
-6.496600000000000000e+04
-5.994700000000000000e+04
-5.761900000000000000e+04
-6.089000000000000000e+04
-6.550600000000000000e+04
-6.497000000000000000e+04
-5.995200000000000000e+04
-5.759400000000000000e+04
-6.083600000000000000e+04
-6.546200000000000000e+04
-6.494600000000000000e+04
-5.994300000000000000e+04
-5.755500000000000000e+04
-6.079400000000000000e+04
-6.543400000000000000e+04
-6.495400000000000000e+04
-5.996300000000000000e+04
-5.757900000000000000e+04
-6.078900000000000000e+04
-6.542900000000000000e+04
-6.494600000000000000e+04
-5.996100000000000000e+04
-5.755400000000000000e+04
-6.074400000000000000e+04
-6.540400000000000000e+04
-6.496600000000000000e+04
-5.998400000000000000e+04
-5.753900000000000000e+04
-6.071100000000000000e+04
-6.539600000000000000e+04
-6.497400000000000000e+04
-6.000700000000000000e+04
-5.754000000000000000e+04
-6.069100000000000000e+04
-6.536400000000000000e+04
-6.496900000000000000e+04
-6.000900000000000000e+04
-5.751700000000000000e+04
-6.065100000000000000e+04
-6.535100000000000000e+04
-6.500600000000000000e+04
-6.004400000000000000e+04
-5.753000000000000000e+04
-6.064100000000000000e+04
-6.534100000000000000e+04
-6.500100000000000000e+04
-6.005300000000000000e+04
-5.752100000000000000e+04
-6.062000000000000000e+04
-6.531500000000000000e+04
-6.500600000000000000e+04
-6.006700000000000000e+04
-5.750600000000000000e+04
-6.075100000000000000e+04
-6.573000000000000000e+04
-6.506800000000000000e+04
-6.009900000000000000e+04
-5.750600000000000000e+04
-6.056400000000000000e+04
-6.529400000000000000e+04
-6.502700000000000000e+04
-6.008200000000000000e+04
-5.747400000000000000e+04
-6.051400000000000000e+04
-6.525500000000000000e+04
-6.500300000000000000e+04
-6.009200000000000000e+04
-5.746000000000000000e+04
-6.048500000000000000e+04
-6.525100000000000000e+04
-6.501800000000000000e+04
-6.011300000000000000e+04
-5.746700000000000000e+04
-6.046700000000000000e+04
-6.521900000000000000e+04
-6.502400000000000000e+04
-6.012400000000000000e+04
-5.745400000000000000e+04
-6.043800000000000000e+04
-6.521600000000000000e+04
-6.503900000000000000e+04
-6.014100000000000000e+04
-5.744700000000000000e+04
-6.040700000000000000e+04
-6.518400000000000000e+04
-6.505200000000000000e+04
-6.015700000000000000e+04
-5.743200000000000000e+04
-6.037400000000000000e+04
-6.515600000000000000e+04
-6.505700000000000000e+04
-6.019000000000000000e+04
-5.744100000000000000e+04
-6.035600000000000000e+04
-6.517300000000000000e+04
-6.509200000000000000e+04
-6.022000000000000000e+04
-5.745400000000000000e+04
-6.034400000000000000e+04
-6.516100000000000000e+04
-6.510100000000000000e+04
-6.024300000000000000e+04
-5.745200000000000000e+04
-6.033500000000000000e+04
-6.515100000000000000e+04
-6.510200000000000000e+04
-6.023500000000000000e+04
-5.742900000000000000e+04
-6.028300000000000000e+04
-6.511200000000000000e+04
-6.510200000000000000e+04
-6.025200000000000000e+04
-5.741400000000000000e+04
-6.025000000000000000e+04
-6.508300000000000000e+04
-6.509000000000000000e+04
-6.025800000000000000e+04
-5.747800000000000000e+04
-6.039400000000000000e+04
-6.506000000000000000e+04
-6.508000000000000000e+04
-6.024800000000000000e+04
-5.737300000000000000e+04
-6.016700000000000000e+04
-6.501700000000000000e+04
-6.506700000000000000e+04
-6.023500000000000000e+04
-5.733900000000000000e+04
-6.011700000000000000e+04
-6.497300000000000000e+04
-6.505200000000000000e+04
-6.023100000000000000e+04
-5.731400000000000000e+04
-6.007800000000000000e+04
-6.494400000000000000e+04
-6.503300000000000000e+04
-6.021000000000000000e+04
-5.727600000000000000e+04
-6.001600000000000000e+04
-6.488200000000000000e+04
-6.500200000000000000e+04
-6.020200000000000000e+04
-5.724200000000000000e+04
-5.996000000000000000e+04
-6.483100000000000000e+04
-6.497800000000000000e+04
-6.017900000000000000e+04
-5.719600000000000000e+04
-5.990400000000000000e+04
-6.478200000000000000e+04
-6.495200000000000000e+04
-6.016800000000000000e+04
-5.716000000000000000e+04
-5.984500000000000000e+04
-6.473100000000000000e+04
-6.493200000000000000e+04
-6.015200000000000000e+04
-5.711900000000000000e+04
-5.977900000000000000e+04
-6.467100000000000000e+04
-6.489200000000000000e+04
-6.013000000000000000e+04
-5.706800000000000000e+04
-5.970600000000000000e+04
-6.460200000000000000e+04
-6.485200000000000000e+04
-6.008900000000000000e+04
-5.702700000000000000e+04
-5.965100000000000000e+04
-6.454900000000000000e+04
-6.481400000000000000e+04
-6.007100000000000000e+04
-5.697600000000000000e+04
-5.957400000000000000e+04
-6.448400000000000000e+04
-6.477900000000000000e+04
-6.004400000000000000e+04
-5.692200000000000000e+04
-5.949900000000000000e+04
-6.441200000000000000e+04
-6.472900000000000000e+04
-6.025100000000000000e+04
-5.724200000000000000e+04
-5.945400000000000000e+04
-6.435100000000000000e+04
-6.469700000000000000e+04
-5.998200000000000000e+04
-5.682000000000000000e+04
-5.936200000000000000e+04
-6.428300000000000000e+04
-6.464200000000000000e+04
-5.994400000000000000e+04
-5.676200000000000000e+04
-5.928300000000000000e+04
-6.421500000000000000e+04
-6.459600000000000000e+04
-5.990300000000000000e+04
-5.670700000000000000e+04
-5.921700000000000000e+04
-6.414800000000000000e+04
-6.454800000000000000e+04
-5.991700000000000000e+04
-5.707900000000000000e+04
-5.925600000000000000e+04
-6.408400000000000000e+04
-6.450200000000000000e+04
-5.983400000000000000e+04
-5.660000000000000000e+04
-5.905900000000000000e+04
-6.400700000000000000e+04
-6.445700000000000000e+04
-5.979100000000000000e+04
-5.653400000000000000e+04
-5.898300000000000000e+04
-6.392700000000000000e+04
-6.440200000000000000e+04
-5.975300000000000000e+04
-5.645400000000000000e+04
-5.889000000000000000e+04
-6.384600000000000000e+04
-6.436300000000000000e+04
-5.972000000000000000e+04
-5.643100000000000000e+04
-5.884200000000000000e+04
-6.379700000000000000e+04
-6.431700000000000000e+04
-5.969600000000000000e+04
-5.637300000000000000e+04
-5.877000000000000000e+04
-6.371700000000000000e+04
-6.426100000000000000e+04
-5.965400000000000000e+04
-5.631700000000000000e+04
-5.870100000000000000e+04
-6.366400000000000000e+04
-6.422500000000000000e+04
-5.962900000000000000e+04
-5.627100000000000000e+04
-5.862300000000000000e+04
-6.358600000000000000e+04
-6.417600000000000000e+04
-5.958400000000000000e+04
-5.620400000000000000e+04
-5.852500000000000000e+04
-6.350400000000000000e+04
-6.412300000000000000e+04
-5.954700000000000000e+04
-5.625200000000000000e+04
-5.865600000000000000e+04
-6.346400000000000000e+04
-6.407800000000000000e+04
-5.952100000000000000e+04
-5.611200000000000000e+04
-5.839000000000000000e+04
-6.337200000000000000e+04
-6.403200000000000000e+04
-5.948600000000000000e+04
-5.605900000000000000e+04
-5.833000000000000000e+04
-6.332400000000000000e+04
-6.399600000000000000e+04
-5.945900000000000000e+04
-5.602100000000000000e+04
-5.828000000000000000e+04
-6.325200000000000000e+04
-6.395400000000000000e+04
-5.942700000000000000e+04
-5.596600000000000000e+04
-5.819700000000000000e+04
-6.318400000000000000e+04
-6.391700000000000000e+04
-5.941100000000000000e+04
-5.593700000000000000e+04
-5.815600000000000000e+04
-6.313900000000000000e+04
-6.388600000000000000e+04
-5.937800000000000000e+04
-5.587900000000000000e+04
-5.808600000000000000e+04
-6.309100000000000000e+04
-6.385600000000000000e+04
-5.936300000000000000e+04
-5.584300000000000000e+04
-5.802200000000000000e+04
-6.302400000000000000e+04
-6.381200000000000000e+04
-5.933700000000000000e+04
-5.580600000000000000e+04
-5.796700000000000000e+04
-6.297200000000000000e+04
-6.378400000000000000e+04
-5.932100000000000000e+04
-5.577000000000000000e+04
-5.791600000000000000e+04
-6.291400000000000000e+04
-6.377800000000000000e+04
-5.949700000000000000e+04
-5.578300000000000000e+04
-5.786100000000000000e+04
-6.288100000000000000e+04
-6.373600000000000000e+04
-5.929000000000000000e+04
-5.569700000000000000e+04
-5.779800000000000000e+04
-6.282800000000000000e+04
-6.369600000000000000e+04
-5.926400000000000000e+04
-5.565600000000000000e+04
-5.777400000000000000e+04
-6.289000000000000000e+04
-6.373000000000000000e+04
-5.927200000000000000e+04
-5.564000000000000000e+04
-5.769600000000000000e+04
-6.273600000000000000e+04
-6.367000000000000000e+04
-5.925600000000000000e+04
-5.560100000000000000e+04
-5.765000000000000000e+04
-6.269400000000000000e+04
-6.364700000000000000e+04
-5.923000000000000000e+04
-5.555200000000000000e+04
-5.758000000000000000e+04
-6.261900000000000000e+04
-6.360500000000000000e+04
-5.921500000000000000e+04
-5.553300000000000000e+04
-5.754900000000000000e+04
-6.259700000000000000e+04
-6.360600000000000000e+04
-5.922400000000000000e+04
-5.551800000000000000e+04
-5.752200000000000000e+04
-6.257400000000000000e+04
-6.360100000000000000e+04
-5.922700000000000000e+04
-5.549900000000000000e+04
-5.747900000000000000e+04
-6.254500000000000000e+04
-6.359200000000000000e+04
-5.923200000000000000e+04
-5.549600000000000000e+04
-5.745900000000000000e+04
-6.251700000000000000e+04
-6.357400000000000000e+04
-5.922900000000000000e+04
-5.548700000000000000e+04
-5.741900000000000000e+04
-6.247700000000000000e+04
-6.356900000000000000e+04
-5.922500000000000000e+04
-5.545100000000000000e+04
-5.737600000000000000e+04
-6.244400000000000000e+04
-6.355100000000000000e+04
-5.922400000000000000e+04
-5.543200000000000000e+04
-5.733900000000000000e+04
-6.240900000000000000e+04
-6.354700000000000000e+04
-5.923200000000000000e+04
-5.542100000000000000e+04
-5.730200000000000000e+04
-6.236300000000000000e+04
-6.352100000000000000e+04
-5.922400000000000000e+04
-5.540200000000000000e+04
-5.726700000000000000e+04
-6.232900000000000000e+04
-6.351000000000000000e+04
-5.922200000000000000e+04
-5.543400000000000000e+04
-5.741500000000000000e+04
-6.232100000000000000e+04
-6.351300000000000000e+04
-5.925400000000000000e+04
-5.539300000000000000e+04
-5.720500000000000000e+04
-6.227300000000000000e+04
-6.349800000000000000e+04
-5.925600000000000000e+04
-5.538300000000000000e+04
-5.718900000000000000e+04
-6.224900000000000000e+04
-6.349400000000000000e+04
-5.926700000000000000e+04
-5.538700000000000000e+04
-5.716500000000000000e+04
-6.223100000000000000e+04
-6.349600000000000000e+04
-5.927200000000000000e+04
-5.536900000000000000e+04
-5.713400000000000000e+04
-6.219700000000000000e+04
-6.348300000000000000e+04
-5.927100000000000000e+04
-5.534800000000000000e+04
-5.709600000000000000e+04
-6.216100000000000000e+04
-6.347700000000000000e+04
-5.929600000000000000e+04
-5.535200000000000000e+04
-5.706400000000000000e+04
-6.213200000000000000e+04
-6.347700000000000000e+04
-5.931200000000000000e+04
-5.534700000000000000e+04
-5.703700000000000000e+04
-6.210600000000000000e+04
-6.347400000000000000e+04
-5.931700000000000000e+04
-5.533900000000000000e+04
-5.700900000000000000e+04
-6.207800000000000000e+04
-6.347000000000000000e+04
-5.934300000000000000e+04
-5.534300000000000000e+04
-5.699200000000000000e+04
-6.205400000000000000e+04
-6.346600000000000000e+04
-5.936100000000000000e+04
-5.535200000000000000e+04
-5.697600000000000000e+04
-6.202900000000000000e+04
-6.346900000000000000e+04
-5.937700000000000000e+04
-5.536400000000000000e+04
-5.696700000000000000e+04
-6.201500000000000000e+04
-6.346900000000000000e+04
-5.938800000000000000e+04
-5.536200000000000000e+04
-5.694400000000000000e+04
-6.199000000000000000e+04
-6.346400000000000000e+04
-5.940600000000000000e+04
-5.548600000000000000e+04
-5.726300000000000000e+04
-6.201900000000000000e+04
-6.347300000000000000e+04
-5.941900000000000000e+04
-5.537600000000000000e+04
-5.692000000000000000e+04
-6.196100000000000000e+04
-6.346700000000000000e+04
-5.944100000000000000e+04
-5.538800000000000000e+04
-5.691900000000000000e+04
-6.194300000000000000e+04
-6.346700000000000000e+04
-5.946200000000000000e+04
-5.541400000000000000e+04
-5.691500000000000000e+04
-6.193100000000000000e+04
-6.348700000000000000e+04
-5.950800000000000000e+04
-5.543100000000000000e+04
-5.691400000000000000e+04
-6.192500000000000000e+04
-6.349500000000000000e+04
-5.953800000000000000e+04
-5.544700000000000000e+04
-5.691300000000000000e+04
-6.191800000000000000e+04
-6.351700000000000000e+04
-5.955700000000000000e+04
-5.546900000000000000e+04
-5.692000000000000000e+04
-6.192500000000000000e+04
-6.352200000000000000e+04
-5.959100000000000000e+04
-5.550500000000000000e+04
-5.693100000000000000e+04
-6.191100000000000000e+04
-6.352100000000000000e+04
-5.960900000000000000e+04
-5.551700000000000000e+04
-5.692400000000000000e+04
-6.190100000000000000e+04
-6.353900000000000000e+04
-5.964900000000000000e+04
-5.553200000000000000e+04
-5.690600000000000000e+04
-6.187900000000000000e+04
-6.355200000000000000e+04
-5.968400000000000000e+04
-5.555600000000000000e+04
-5.692300000000000000e+04
-6.188700000000000000e+04
-6.357100000000000000e+04
-5.972800000000000000e+04
-5.558500000000000000e+04
-5.692500000000000000e+04
-6.189100000000000000e+04
-6.359900000000000000e+04
-5.977200000000000000e+04
-5.561400000000000000e+04
-5.692100000000000000e+04
-6.187700000000000000e+04
-6.368200000000000000e+04
-6.003500000000000000e+04
-5.566500000000000000e+04
-5.691900000000000000e+04
-6.187700000000000000e+04
-6.363800000000000000e+04
-5.985300000000000000e+04
-5.568100000000000000e+04
-5.694100000000000000e+04
-6.188700000000000000e+04
-6.368500000000000000e+04
-5.990900000000000000e+04
-5.569000000000000000e+04
-5.694100000000000000e+04
-6.189700000000000000e+04
-6.370600000000000000e+04
-5.995000000000000000e+04
-5.571000000000000000e+04
-5.694700000000000000e+04
-6.189400000000000000e+04
-6.371900000000000000e+04
-5.995400000000000000e+04
-5.572700000000000000e+04
-5.693100000000000000e+04
-6.187900000000000000e+04
-6.372200000000000000e+04
-5.999600000000000000e+04
-5.576700000000000000e+04
-5.696100000000000000e+04
-6.188700000000000000e+04
-6.375400000000000000e+04
-6.003800000000000000e+04
-5.578000000000000000e+04
-5.695000000000000000e+04
-6.189200000000000000e+04
-6.378300000000000000e+04
-6.009000000000000000e+04
-5.582300000000000000e+04
-5.695900000000000000e+04
-6.190200000000000000e+04
-6.382700000000000000e+04
-6.014400000000000000e+04
-5.584200000000000000e+04
-5.696100000000000000e+04
-6.189900000000000000e+04
-6.383400000000000000e+04
-6.017400000000000000e+04
-5.587000000000000000e+04
-5.695900000000000000e+04
-6.189700000000000000e+04
-6.386300000000000000e+04
-6.021200000000000000e+04
-5.589000000000000000e+04
-5.695800000000000000e+04
-6.188900000000000000e+04
-6.387800000000000000e+04
-6.026400000000000000e+04
-5.592600000000000000e+04
-5.696900000000000000e+04
-6.189600000000000000e+04
-6.390700000000000000e+04
-6.029900000000000000e+04
-5.595100000000000000e+04
-5.697700000000000000e+04
-6.195700000000000000e+04
-6.431900000000000000e+04
-6.058600000000000000e+04
-5.605900000000000000e+04
-5.697600000000000000e+04
-6.188900000000000000e+04
-6.394500000000000000e+04
-6.037000000000000000e+04
-5.599500000000000000e+04
-5.699200000000000000e+04
-6.191400000000000000e+04
-6.397100000000000000e+04
-6.040500000000000000e+04
-5.602000000000000000e+04
-5.698000000000000000e+04
-6.190100000000000000e+04
-6.398600000000000000e+04
-6.044800000000000000e+04
-5.605100000000000000e+04
-5.699200000000000000e+04
-6.191100000000000000e+04
-6.402300000000000000e+04
-6.050100000000000000e+04
-5.608900000000000000e+04
-5.700600000000000000e+04
-6.190700000000000000e+04
-6.404200000000000000e+04
-6.054300000000000000e+04
-5.611200000000000000e+04
-5.702700000000000000e+04
-6.192500000000000000e+04
-6.407600000000000000e+04
-6.061400000000000000e+04
-5.620800000000000000e+04
-5.705300000000000000e+04
-6.186300000000000000e+04
-6.407100000000000000e+04
-6.060500000000000000e+04
-5.615500000000000000e+04
-5.710900000000000000e+04
-6.212200000000000000e+04
-6.412900000000000000e+04
-6.071200000000000000e+04
-5.622100000000000000e+04
-5.698200000000000000e+04
-6.189900000000000000e+04
-6.410100000000000000e+04
-6.066900000000000000e+04
-5.619900000000000000e+04
-5.701400000000000000e+04
-6.190400000000000000e+04
-6.413900000000000000e+04
-6.072200000000000000e+04
-5.624700000000000000e+04
-5.704100000000000000e+04
-6.192200000000000000e+04
-6.418600000000000000e+04
-6.076400000000000000e+04
-5.626200000000000000e+04
-5.704200000000000000e+04
-6.191600000000000000e+04
-6.419700000000000000e+04
-6.082200000000000000e+04
-5.628900000000000000e+04
-5.703800000000000000e+04
-6.192200000000000000e+04
-6.422400000000000000e+04
-6.085600000000000000e+04
-5.632700000000000000e+04
-5.706200000000000000e+04
-6.192100000000000000e+04
-6.423700000000000000e+04
-6.089900000000000000e+04
-5.635900000000000000e+04
-5.705800000000000000e+04
-6.191700000000000000e+04
-6.425900000000000000e+04
-6.093100000000000000e+04
-5.639400000000000000e+04
-5.708900000000000000e+04
-6.193100000000000000e+04
-6.428900000000000000e+04
-6.096900000000000000e+04
-5.641700000000000000e+04
-5.708100000000000000e+04
-6.191400000000000000e+04
-6.429700000000000000e+04
-6.101000000000000000e+04
-5.644700000000000000e+04
-5.707500000000000000e+04
-6.190400000000000000e+04
-6.442600000000000000e+04
-6.124600000000000000e+04
-5.647700000000000000e+04
-5.708200000000000000e+04
-6.191700000000000000e+04
-6.433800000000000000e+04
-6.110500000000000000e+04
-5.650400000000000000e+04
-5.708100000000000000e+04
-6.189700000000000000e+04
-6.434400000000000000e+04
-6.109800000000000000e+04
-5.651600000000000000e+04
-5.710100000000000000e+04
-6.191100000000000000e+04
-6.436700000000000000e+04
-6.114900000000000000e+04
-5.655600000000000000e+04
-5.711700000000000000e+04
-6.191200000000000000e+04
-6.437700000000000000e+04
-6.118600000000000000e+04
-5.658500000000000000e+04
-5.711200000000000000e+04
-6.189500000000000000e+04
-6.439200000000000000e+04
-6.120400000000000000e+04
-5.658600000000000000e+04
-5.710100000000000000e+04
-6.188200000000000000e+04
-6.439100000000000000e+04
-6.123100000000000000e+04
-5.659900000000000000e+04
-5.709700000000000000e+04
-6.190200000000000000e+04
-6.444900000000000000e+04
-6.126400000000000000e+04
-5.657900000000000000e+04
-5.705200000000000000e+04
-6.184100000000000000e+04
-6.439400000000000000e+04
-6.125700000000000000e+04
-5.662200000000000000e+04
-5.714900000000000000e+04
-6.187200000000000000e+04
-6.439400000000000000e+04
-6.127700000000000000e+04
-5.662400000000000000e+04
-5.705300000000000000e+04
-6.179900000000000000e+04
-6.442400000000000000e+04
-6.149400000000000000e+04
-5.666400000000000000e+04
-5.702900000000000000e+04
-6.177100000000000000e+04
-6.437600000000000000e+04
-6.130600000000000000e+04
-5.663200000000000000e+04
-5.702100000000000000e+04
-6.175900000000000000e+04
-6.437700000000000000e+04
-6.130900000000000000e+04
-5.664000000000000000e+04
-5.700600000000000000e+04
-6.173500000000000000e+04
-6.436400000000000000e+04
-6.132200000000000000e+04
-5.664200000000000000e+04
-5.698800000000000000e+04
-6.169300000000000000e+04
-6.434200000000000000e+04
-6.131700000000000000e+04
-5.662200000000000000e+04
-5.695000000000000000e+04
-6.166300000000000000e+04
-6.433700000000000000e+04
-6.133400000000000000e+04
-5.662400000000000000e+04
-5.692400000000000000e+04
-6.163200000000000000e+04
-6.431700000000000000e+04
-6.133000000000000000e+04
-5.661600000000000000e+04
-5.688300000000000000e+04
-6.156800000000000000e+04
-6.428200000000000000e+04
-6.130800000000000000e+04
-5.659700000000000000e+04
-5.686100000000000000e+04
-6.153400000000000000e+04
-6.426100000000000000e+04
-6.131000000000000000e+04
-5.658700000000000000e+04
-5.680300000000000000e+04
-6.147000000000000000e+04
-6.423800000000000000e+04
-6.130300000000000000e+04
-5.656100000000000000e+04
-5.676900000000000000e+04
-6.143600000000000000e+04
-6.419900000000000000e+04
-6.127900000000000000e+04
-5.664100000000000000e+04
-5.690500000000000000e+04
-6.139300000000000000e+04
-6.416800000000000000e+04
-6.127500000000000000e+04
-5.652600000000000000e+04
-5.669800000000000000e+04
-6.133100000000000000e+04
-6.413700000000000000e+04
-6.126100000000000000e+04
-5.651200000000000000e+04
-5.664900000000000000e+04
-6.127400000000000000e+04
-6.410700000000000000e+04
-6.125100000000000000e+04
-5.648500000000000000e+04
-5.660700000000000000e+04
-6.121600000000000000e+04
-6.406900000000000000e+04
-6.122600000000000000e+04
-5.644600000000000000e+04
-5.655400000000000000e+04
-6.115100000000000000e+04
-6.401600000000000000e+04
-6.120400000000000000e+04
-5.644400000000000000e+04
-5.651900000000000000e+04
-6.107900000000000000e+04
-6.397600000000000000e+04
-6.118300000000000000e+04
-5.640400000000000000e+04
-5.646700000000000000e+04
-6.105600000000000000e+04
-6.395100000000000000e+04
-6.117300000000000000e+04
-5.636600000000000000e+04
-5.640400000000000000e+04
-6.099100000000000000e+04
-6.391300000000000000e+04
-6.115600000000000000e+04
-5.634600000000000000e+04
-5.636300000000000000e+04
-6.093800000000000000e+04
-6.387200000000000000e+04
-6.113700000000000000e+04
-5.632000000000000000e+04
-5.632000000000000000e+04
-6.088200000000000000e+04
-6.383700000000000000e+04
-6.111100000000000000e+04
-5.628000000000000000e+04
-5.626900000000000000e+04
-6.083500000000000000e+04
-6.380200000000000000e+04
-6.110100000000000000e+04
-5.626100000000000000e+04
-5.621100000000000000e+04
-6.076300000000000000e+04
-6.376900000000000000e+04
-6.108900000000000000e+04
-5.622600000000000000e+04
-5.615600000000000000e+04
-6.069700000000000000e+04
-6.373100000000000000e+04
-6.137500000000000000e+04
-5.641600000000000000e+04
-5.638800000000000000e+04
-6.080200000000000000e+04
-6.368800000000000000e+04
-6.105200000000000000e+04
-5.634400000000000000e+04
-5.636400000000000000e+04
-6.063400000000000000e+04
-6.379400000000000000e+04
-6.149800000000000000e+04
-5.633700000000000000e+04
-5.602700000000000000e+04
-6.055600000000000000e+04
-6.362300000000000000e+04
-6.101200000000000000e+04
-5.613800000000000000e+04
-5.597700000000000000e+04
-6.048200000000000000e+04
-6.357900000000000000e+04
-6.099000000000000000e+04
-5.610900000000000000e+04
-5.593200000000000000e+04
-6.044200000000000000e+04
-6.355900000000000000e+04
-6.098400000000000000e+04
-5.609600000000000000e+04
-5.589100000000000000e+04
-6.041100000000000000e+04
-6.353100000000000000e+04
-6.095700000000000000e+04
-5.604900000000000000e+04
-5.583400000000000000e+04
-6.032400000000000000e+04
-6.348800000000000000e+04
-6.095200000000000000e+04
-5.603400000000000000e+04
-5.577800000000000000e+04
-6.028900000000000000e+04
-6.346900000000000000e+04
-6.104100000000000000e+04
-5.616700000000000000e+04
-5.576700000000000000e+04
-6.024600000000000000e+04
-6.344900000000000000e+04
-6.095700000000000000e+04
-5.601500000000000000e+04
-5.571600000000000000e+04
-6.020700000000000000e+04
-6.343100000000000000e+04
-6.095300000000000000e+04
-5.600600000000000000e+04
-5.569400000000000000e+04
-6.016700000000000000e+04
-6.341800000000000000e+04
-6.096100000000000000e+04
-5.599800000000000000e+04
-5.565700000000000000e+04
-6.013700000000000000e+04
-6.340100000000000000e+04
-6.095500000000000000e+04
-5.598500000000000000e+04
-5.561600000000000000e+04
-6.007600000000000000e+04
-6.339300000000000000e+04
-6.096800000000000000e+04
-5.598600000000000000e+04
-5.558400000000000000e+04
-6.004400000000000000e+04
-6.337100000000000000e+04
-6.096600000000000000e+04
-5.597400000000000000e+04
-5.556400000000000000e+04
-6.002300000000000000e+04
-6.336300000000000000e+04
-6.097300000000000000e+04
-5.597400000000000000e+04
-5.554600000000000000e+04
-6.000400000000000000e+04
-6.336400000000000000e+04
-6.099100000000000000e+04
-5.599200000000000000e+04
-5.552900000000000000e+04
-5.996600000000000000e+04
-6.334500000000000000e+04
-6.099300000000000000e+04
-5.597800000000000000e+04
-5.550700000000000000e+04
-5.991800000000000000e+04
-6.333700000000000000e+04
-6.100600000000000000e+04
-5.598500000000000000e+04
-5.549400000000000000e+04
-5.989100000000000000e+04
-6.330100000000000000e+04
-6.100200000000000000e+04
-5.597200000000000000e+04
-5.544400000000000000e+04
-5.985400000000000000e+04
-6.331100000000000000e+04
-6.101600000000000000e+04
-5.597200000000000000e+04
-5.542600000000000000e+04
-5.982700000000000000e+04
-6.331700000000000000e+04
-6.104300000000000000e+04
-5.597300000000000000e+04
-5.540100000000000000e+04
-5.978600000000000000e+04
-6.328900000000000000e+04
-6.104700000000000000e+04
-5.598600000000000000e+04
-5.539000000000000000e+04
-5.975900000000000000e+04
-6.326900000000000000e+04
-6.107000000000000000e+04
-5.601500000000000000e+04
-5.538900000000000000e+04
-5.974600000000000000e+04
-6.327600000000000000e+04
-6.107600000000000000e+04
-5.601700000000000000e+04
-5.537400000000000000e+04
-5.972500000000000000e+04
-6.327100000000000000e+04
-6.109400000000000000e+04
-5.602100000000000000e+04
-5.536900000000000000e+04
-6.013300000000000000e+04
-6.368200000000000000e+04
-6.131500000000000000e+04
-5.603600000000000000e+04
-5.534100000000000000e+04
-5.967200000000000000e+04
-6.324600000000000000e+04
-6.111400000000000000e+04
-5.605100000000000000e+04
-5.535500000000000000e+04
-5.967200000000000000e+04
-6.325500000000000000e+04
-6.113600000000000000e+04
-5.607200000000000000e+04
-5.535600000000000000e+04
-5.966600000000000000e+04
-6.327100000000000000e+04
-6.117800000000000000e+04
-5.611600000000000000e+04
-5.536600000000000000e+04
-5.965300000000000000e+04
-6.326900000000000000e+04
-6.118300000000000000e+04
-5.612900000000000000e+04
-5.537600000000000000e+04
-5.964400000000000000e+04
-6.326400000000000000e+04
-6.121600000000000000e+04
-5.614600000000000000e+04
-5.535700000000000000e+04
-5.962400000000000000e+04
-6.326800000000000000e+04
-6.123200000000000000e+04
-5.616200000000000000e+04
-5.536000000000000000e+04
-5.963200000000000000e+04
-6.330800000000000000e+04
-6.127100000000000000e+04
-5.618800000000000000e+04
-5.538000000000000000e+04
-5.961900000000000000e+04
-6.328800000000000000e+04
-6.129700000000000000e+04
-5.624000000000000000e+04
-5.539800000000000000e+04
-5.961500000000000000e+04
-6.329600000000000000e+04
-6.131900000000000000e+04
-5.626400000000000000e+04
-5.539300000000000000e+04
-5.959600000000000000e+04
-6.330000000000000000e+04
-6.133700000000000000e+04
-5.627200000000000000e+04
-5.537500000000000000e+04
-5.956500000000000000e+04
-6.328700000000000000e+04
-6.136500000000000000e+04
-5.628600000000000000e+04
-5.535900000000000000e+04
-5.953700000000000000e+04
-6.328900000000000000e+04
-6.136600000000000000e+04
-5.628500000000000000e+04
-5.535200000000000000e+04
-5.952500000000000000e+04
-6.328600000000000000e+04
-6.141000000000000000e+04
-5.633500000000000000e+04
-5.536200000000000000e+04
-5.953900000000000000e+04
-6.332100000000000000e+04
-6.154700000000000000e+04
-5.651500000000000000e+04
-5.554900000000000000e+04
-5.958700000000000000e+04
-6.326000000000000000e+04
-6.153400000000000000e+04
-5.688900000000000000e+04
-5.582700000000000000e+04
-5.943700000000000000e+04
-6.309200000000000000e+04
-6.140900000000000000e+04
-5.641200000000000000e+04
-5.532200000000000000e+04
-5.947700000000000000e+04
-6.346900000000000000e+04
-6.148900000000000000e+04
-5.622800000000000000e+04
-5.521100000000000000e+04
-5.962600000000000000e+04
-6.358300000000000000e+04
-6.164700000000000000e+04
-5.650600000000000000e+04
-5.524600000000000000e+04
-5.953400000000000000e+04
-6.343700000000000000e+04
-6.138900000000000000e+04
-5.637600000000000000e+04
-5.473900000000000000e+04
-5.888600000000000000e+04
-6.279600000000000000e+04
-6.102800000000000000e+04
-5.607200000000000000e+04
-5.502700000000000000e+04
-5.919400000000000000e+04
-6.336600000000000000e+04
-6.180400000000000000e+04
-5.668700000000000000e+04
-5.531600000000000000e+04
-5.949700000000000000e+04
-6.355200000000000000e+04
-6.195600000000000000e+04
-5.668000000000000000e+04
-5.538000000000000000e+04
-5.939200000000000000e+04
-6.359400000000000000e+04
-6.215100000000000000e+04
-5.711300000000000000e+04
-5.578700000000000000e+04
-5.988000000000000000e+04
-6.407400000000000000e+04
-6.271900000000000000e+04
-5.748100000000000000e+04
-5.579300000000000000e+04
-6.006600000000000000e+04
-6.480400000000000000e+04
-6.276100000000000000e+04
-5.702000000000000000e+04
-5.578100000000000000e+04
-5.987200000000000000e+04
-6.419700000000000000e+04
-6.267200000000000000e+04
-5.731300000000000000e+04
-5.589700000000000000e+04
-5.997900000000000000e+04
-6.428100000000000000e+04
-6.298400000000000000e+04
-5.755800000000000000e+04
-5.603000000000000000e+04
-5.974600000000000000e+04
-6.440600000000000000e+04
-6.330800000000000000e+04
-5.768900000000000000e+04
-5.558200000000000000e+04
-5.941800000000000000e+04
-6.386300000000000000e+04
-6.269500000000000000e+04
-5.783300000000000000e+04
-5.679400000000000000e+04
-6.047600000000000000e+04
-6.452500000000000000e+04
-6.306200000000000000e+04
-5.748400000000000000e+04
-5.566400000000000000e+04
-6.019100000000000000e+04
-6.440000000000000000e+04
-6.284200000000000000e+04
-5.783500000000000000e+04
-5.649900000000000000e+04
-6.043100000000000000e+04
-6.517700000000000000e+04
-6.300200000000000000e+04
-5.723400000000000000e+04
-5.607000000000000000e+04
-5.968500000000000000e+04
-6.449700000000000000e+04
-6.539900000000000000e+04
-5.956700000000000000e+04
-5.672800000000000000e+04
-6.023700000000000000e+04
-6.494000000000000000e+04
-6.252800000000000000e+04
-5.749900000000000000e+04
-5.530100000000000000e+04
-5.954100000000000000e+04
-6.595500000000000000e+04
-6.474900000000000000e+04
-5.829200000000000000e+04
-5.532700000000000000e+04
-5.953900000000000000e+04
-6.453300000000000000e+04
-6.367600000000000000e+04
-5.817100000000000000e+04
-5.607400000000000000e+04
-5.917200000000000000e+04
-6.322300000000000000e+04
-6.284200000000000000e+04
-5.750200000000000000e+04
-5.596600000000000000e+04
-5.879800000000000000e+04
-6.323900000000000000e+04
-6.259600000000000000e+04
-5.713200000000000000e+04
-5.459600000000000000e+04
-5.885600000000000000e+04
-6.387300000000000000e+04
-6.283500000000000000e+04
-5.751400000000000000e+04
-5.565200000000000000e+04
-5.932700000000000000e+04
-6.375500000000000000e+04
-6.259700000000000000e+04
-5.720900000000000000e+04
-5.496400000000000000e+04
-5.864500000000000000e+04
-6.328800000000000000e+04
-6.237100000000000000e+04
-5.700900000000000000e+04
-5.476500000000000000e+04
-5.889100000000000000e+04
-6.373900000000000000e+04
-6.266400000000000000e+04
-5.705200000000000000e+04
-5.503400000000000000e+04
-5.893700000000000000e+04
-6.338500000000000000e+04
-6.222600000000000000e+04
-5.703300000000000000e+04
-5.513600000000000000e+04
-5.907600000000000000e+04
-6.373100000000000000e+04
-6.244200000000000000e+04
-5.705700000000000000e+04
-5.515400000000000000e+04
-5.895500000000000000e+04
-6.350400000000000000e+04
-6.238400000000000000e+04
-5.709400000000000000e+04
-5.515200000000000000e+04
-5.888100000000000000e+04
-6.351300000000000000e+04
-6.268600000000000000e+04
-5.727800000000000000e+04
-5.513600000000000000e+04
-5.888600000000000000e+04
-6.337900000000000000e+04
-6.247400000000000000e+04
-5.745100000000000000e+04
-5.542100000000000000e+04
-5.905400000000000000e+04
-6.344200000000000000e+04
-6.264300000000000000e+04
-5.774800000000000000e+04
-5.562500000000000000e+04
-5.884100000000000000e+04
-6.341100000000000000e+04
-6.253200000000000000e+04
-5.729500000000000000e+04
-5.524900000000000000e+04
-5.883700000000000000e+04
-6.341900000000000000e+04
-6.280100000000000000e+04
-5.743200000000000000e+04
-5.523400000000000000e+04
-5.887100000000000000e+04
-6.379800000000000000e+04
-6.291900000000000000e+04
-5.746400000000000000e+04
-5.534600000000000000e+04
-5.895200000000000000e+04
-6.352000000000000000e+04
-6.274600000000000000e+04
-5.754500000000000000e+04
-5.538200000000000000e+04
-5.894100000000000000e+04
-6.355700000000000000e+04
-6.275300000000000000e+04
-5.767700000000000000e+04
-5.548600000000000000e+04
-5.888200000000000000e+04
-6.351000000000000000e+04
-6.278600000000000000e+04
-5.763800000000000000e+04
-5.545100000000000000e+04
-5.905600000000000000e+04
-6.374400000000000000e+04
-6.282700000000000000e+04
-5.759800000000000000e+04
-5.544200000000000000e+04
-5.902100000000000000e+04
-6.369500000000000000e+04
-6.278600000000000000e+04
-5.755700000000000000e+04
-5.544100000000000000e+04
-5.893200000000000000e+04
-6.353600000000000000e+04
-6.282200000000000000e+04
-5.769100000000000000e+04
-5.550700000000000000e+04
-5.895200000000000000e+04
-6.351200000000000000e+04
-6.273600000000000000e+04
-5.763600000000000000e+04
-5.558700000000000000e+04
-5.905200000000000000e+04
-6.348900000000000000e+04
-6.263900000000000000e+04
-5.761900000000000000e+04
-5.553700000000000000e+04
-5.900700000000000000e+04
-6.349100000000000000e+04
-6.268500000000000000e+04
-5.764700000000000000e+04
-5.558600000000000000e+04
-5.903700000000000000e+04
-6.350600000000000000e+04
-6.267900000000000000e+04
-5.763200000000000000e+04
-5.560100000000000000e+04
-5.905400000000000000e+04
-6.349400000000000000e+04
-6.266100000000000000e+04
-5.762200000000000000e+04
-5.558900000000000000e+04
-5.903400000000000000e+04
-6.349500000000000000e+04
-6.269400000000000000e+04
-5.763200000000000000e+04
-5.556000000000000000e+04
-5.900200000000000000e+04
-6.348100000000000000e+04
-6.271900000000000000e+04
-5.768700000000000000e+04
-5.548400000000000000e+04
-5.891300000000000000e+04
-6.342600000000000000e+04
-6.266100000000000000e+04
-5.772200000000000000e+04
-5.559400000000000000e+04
-5.884800000000000000e+04
-6.335100000000000000e+04
-6.263700000000000000e+04
-5.762800000000000000e+04
-5.551200000000000000e+04
-5.885900000000000000e+04
-6.338500000000000000e+04
-6.265300000000000000e+04
-5.763200000000000000e+04
-5.548700000000000000e+04
-5.886700000000000000e+04
-6.340900000000000000e+04
-6.270400000000000000e+04
-5.763200000000000000e+04
-5.545200000000000000e+04
-5.880900000000000000e+04
-6.336400000000000000e+04
-6.269300000000000000e+04
-5.769200000000000000e+04
-5.547100000000000000e+04
-5.878600000000000000e+04
-6.333700000000000000e+04
-6.269900000000000000e+04
-5.768000000000000000e+04
-5.547400000000000000e+04
-5.882400000000000000e+04
-6.339500000000000000e+04
-6.275800000000000000e+04
-5.774000000000000000e+04
-5.550000000000000000e+04
-5.880900000000000000e+04
-6.339400000000000000e+04
-6.279400000000000000e+04
-5.779200000000000000e+04
-5.552400000000000000e+04
-5.880600000000000000e+04
-6.340200000000000000e+04
-6.281600000000000000e+04
-5.780500000000000000e+04
-5.550800000000000000e+04
-5.878700000000000000e+04
-6.340400000000000000e+04
-6.283900000000000000e+04
-5.783300000000000000e+04
-5.551400000000000000e+04
-5.878400000000000000e+04
-6.341600000000000000e+04
-6.286900000000000000e+04
-5.785600000000000000e+04
-5.551600000000000000e+04
-5.876900000000000000e+04
-6.340400000000000000e+04
-6.287600000000000000e+04
-5.786600000000000000e+04
-5.574200000000000000e+04
-5.901300000000000000e+04
-6.339400000000000000e+04
-6.288600000000000000e+04
-5.788300000000000000e+04
-5.549500000000000000e+04
-5.872300000000000000e+04
-6.337000000000000000e+04
-6.289500000000000000e+04
-5.790300000000000000e+04
-5.551100000000000000e+04
-5.872600000000000000e+04
-6.338700000000000000e+04
-6.292800000000000000e+04
-5.793800000000000000e+04
-5.552800000000000000e+04
-5.872000000000000000e+04
-6.336900000000000000e+04
-6.293400000000000000e+04
-5.795900000000000000e+04
-5.552200000000000000e+04
-5.869900000000000000e+04
-6.338200000000000000e+04
-6.295700000000000000e+04
-5.797700000000000000e+04
-5.552200000000000000e+04
-5.868900000000000000e+04
-6.334900000000000000e+04
-6.294300000000000000e+04
-5.797900000000000000e+04
-5.551900000000000000e+04
-5.867000000000000000e+04
-6.334600000000000000e+04
-6.295500000000000000e+04
-5.800700000000000000e+04
-5.552900000000000000e+04
-5.866600000000000000e+04
-6.334000000000000000e+04
-6.297900000000000000e+04
-5.804800000000000000e+04
-5.555100000000000000e+04
-5.866000000000000000e+04
-6.334700000000000000e+04
-6.299700000000000000e+04
-5.806200000000000000e+04
-5.555700000000000000e+04
-5.866700000000000000e+04
-6.334600000000000000e+04
-6.301600000000000000e+04
-5.810300000000000000e+04
-5.557500000000000000e+04
-5.865100000000000000e+04
-6.333700000000000000e+04
-6.302700000000000000e+04
-5.813200000000000000e+04
-5.559800000000000000e+04
-5.864100000000000000e+04
-6.332900000000000000e+04
-6.305000000000000000e+04
-5.816700000000000000e+04
-5.560600000000000000e+04
-5.862700000000000000e+04
-6.331400000000000000e+04
-6.305600000000000000e+04
-5.819200000000000000e+04
-5.563100000000000000e+04
-5.864700000000000000e+04
-6.332600000000000000e+04
-6.307400000000000000e+04
-5.822600000000000000e+04
-5.565000000000000000e+04
-5.864600000000000000e+04
-6.333400000000000000e+04
-6.311500000000000000e+04
-5.827100000000000000e+04
-5.568200000000000000e+04
-5.865900000000000000e+04
-6.333000000000000000e+04
-6.311600000000000000e+04
-5.828600000000000000e+04
-5.568700000000000000e+04
-5.864200000000000000e+04
-6.332400000000000000e+04
-6.313700000000000000e+04
-5.832200000000000000e+04
-5.570400000000000000e+04
-5.863500000000000000e+04
-6.331700000000000000e+04
-6.314800000000000000e+04
-5.835300000000000000e+04
-5.584600000000000000e+04
-5.880800000000000000e+04
-6.351000000000000000e+04
-6.320500000000000000e+04
-5.837200000000000000e+04
-5.573700000000000000e+04
-5.863300000000000000e+04
-6.330600000000000000e+04
-6.317300000000000000e+04
-5.840400000000000000e+04
-5.574600000000000000e+04
-5.862200000000000000e+04
-6.330200000000000000e+04
-6.319000000000000000e+04
-5.842300000000000000e+04
-5.576200000000000000e+04
-5.862700000000000000e+04
-6.329600000000000000e+04
-6.319300000000000000e+04
-5.845100000000000000e+04
-5.576600000000000000e+04
-5.860500000000000000e+04
-6.329400000000000000e+04
-6.320800000000000000e+04
-5.845600000000000000e+04
-5.576700000000000000e+04
-5.860700000000000000e+04
-6.328700000000000000e+04
-6.321800000000000000e+04
-5.848500000000000000e+04
-5.577700000000000000e+04
-5.859600000000000000e+04
-6.327900000000000000e+04
-6.322600000000000000e+04
-5.851000000000000000e+04
-5.577600000000000000e+04
-5.857400000000000000e+04
-6.339600000000000000e+04
-6.349800000000000000e+04
-5.861400000000000000e+04
-5.579400000000000000e+04
-5.857500000000000000e+04
-6.327200000000000000e+04
-6.326400000000000000e+04
-5.854300000000000000e+04
-5.579700000000000000e+04
-5.858300000000000000e+04
-6.328100000000000000e+04
-6.327400000000000000e+04
-5.856300000000000000e+04
-5.580100000000000000e+04
-5.855600000000000000e+04
-6.325900000000000000e+04
-6.327900000000000000e+04
-5.857600000000000000e+04
-5.579200000000000000e+04
-5.854300000000000000e+04
-6.326700000000000000e+04
-6.333900000000000000e+04
-5.875900000000000000e+04
-5.580700000000000000e+04
-5.852600000000000000e+04
-6.325100000000000000e+04
-6.330800000000000000e+04
-5.861200000000000000e+04
-5.578200000000000000e+04
-5.850700000000000000e+04
-6.322800000000000000e+04
-6.330100000000000000e+04
-5.860900000000000000e+04
-5.577400000000000000e+04
-5.847400000000000000e+04
-6.323000000000000000e+04
-6.333100000000000000e+04
-5.864400000000000000e+04
-5.578100000000000000e+04
-5.845900000000000000e+04
-6.322600000000000000e+04
-6.334400000000000000e+04
-5.866300000000000000e+04
-5.579300000000000000e+04
-5.845100000000000000e+04
-6.320100000000000000e+04
-6.334700000000000000e+04
-5.868200000000000000e+04
-5.579100000000000000e+04
-5.844400000000000000e+04
-6.320400000000000000e+04
-6.336400000000000000e+04
-5.870500000000000000e+04
-5.579900000000000000e+04
-5.843200000000000000e+04
-6.319900000000000000e+04
-6.339100000000000000e+04
-5.874100000000000000e+04
-5.581000000000000000e+04
-5.843800000000000000e+04
-6.320300000000000000e+04
-6.341000000000000000e+04
-5.876800000000000000e+04
-5.580200000000000000e+04
-5.839200000000000000e+04
-6.318900000000000000e+04
-6.343700000000000000e+04
-5.879100000000000000e+04
-5.580600000000000000e+04
-5.845000000000000000e+04
-6.340400000000000000e+04
-6.346700000000000000e+04
-5.882200000000000000e+04
-5.581500000000000000e+04
-5.835700000000000000e+04
-6.316000000000000000e+04
-6.344600000000000000e+04
-5.882200000000000000e+04
-5.578700000000000000e+04
-5.834200000000000000e+04
-6.315500000000000000e+04
-6.346400000000000000e+04
-5.884700000000000000e+04
-5.579100000000000000e+04
-5.832800000000000000e+04
-6.315800000000000000e+04
-6.348400000000000000e+04
-5.886300000000000000e+04
-5.578100000000000000e+04
-5.830600000000000000e+04
-6.315200000000000000e+04
-6.350500000000000000e+04
-5.889200000000000000e+04
-5.578200000000000000e+04
-5.831800000000000000e+04
-6.318500000000000000e+04
-6.355300000000000000e+04
-5.890700000000000000e+04
-5.577100000000000000e+04
-5.825900000000000000e+04
-6.313600000000000000e+04
-6.354200000000000000e+04
-5.893900000000000000e+04
-5.578200000000000000e+04
-5.824800000000000000e+04
-6.313200000000000000e+04
-6.356400000000000000e+04
-5.896800000000000000e+04
-5.577400000000000000e+04
-5.822600000000000000e+04
-6.312100000000000000e+04
-6.357400000000000000e+04
-5.897400000000000000e+04
-5.576600000000000000e+04
-5.819300000000000000e+04
-6.310400000000000000e+04
-6.358300000000000000e+04
-5.899800000000000000e+04
-5.576100000000000000e+04
-5.817900000000000000e+04
-6.309000000000000000e+04
-6.359700000000000000e+04
-5.901400000000000000e+04
-5.575400000000000000e+04
-5.815500000000000000e+04
-6.307900000000000000e+04
-6.360500000000000000e+04
-5.903300000000000000e+04
-5.579600000000000000e+04
-5.838200000000000000e+04
-6.339700000000000000e+04
-6.371400000000000000e+04
-5.905400000000000000e+04
-5.575200000000000000e+04
-5.811600000000000000e+04
-6.305200000000000000e+04
-6.363100000000000000e+04
-5.906900000000000000e+04
-5.575800000000000000e+04
-5.811900000000000000e+04
-6.307000000000000000e+04
-6.367000000000000000e+04
-5.912400000000000000e+04
-5.579000000000000000e+04
-5.812500000000000000e+04
-6.306800000000000000e+04
-6.366400000000000000e+04
-5.912900000000000000e+04
-5.577000000000000000e+04
-5.808800000000000000e+04
-6.305000000000000000e+04
-6.368600000000000000e+04
-5.915000000000000000e+04
-5.577400000000000000e+04
-5.806500000000000000e+04
-6.303100000000000000e+04
-6.368900000000000000e+04
-5.917100000000000000e+04
-5.577200000000000000e+04
-5.803900000000000000e+04
-6.300700000000000000e+04
-6.369100000000000000e+04
-5.917700000000000000e+04
-5.576700000000000000e+04
-5.802700000000000000e+04
-6.299300000000000000e+04
-6.369100000000000000e+04
-5.920200000000000000e+04
-5.578000000000000000e+04
-5.801200000000000000e+04
-6.299000000000000000e+04
-6.370900000000000000e+04
-5.932100000000000000e+04
-5.600900000000000000e+04
-5.817600000000000000e+04
-6.300400000000000000e+04
-6.372600000000000000e+04
-5.924300000000000000e+04
-5.578700000000000000e+04
-5.799900000000000000e+04
-6.297700000000000000e+04
-6.372700000000000000e+04
-5.926200000000000000e+04
-5.579100000000000000e+04
-5.798900000000000000e+04
-6.297700000000000000e+04
-6.375300000000000000e+04
-5.931200000000000000e+04
-5.582600000000000000e+04
-5.798500000000000000e+04
-6.295500000000000000e+04
-6.374400000000000000e+04
-5.928700000000000000e+04
-5.579100000000000000e+04
-5.795100000000000000e+04
-6.292700000000000000e+04
-6.375000000000000000e+04
-5.932900000000000000e+04
-5.582100000000000000e+04
-5.794300000000000000e+04
-6.290100000000000000e+04
-6.373700000000000000e+04
-5.932600000000000000e+04
-5.578800000000000000e+04
-5.791200000000000000e+04
-6.289200000000000000e+04
-6.374500000000000000e+04
-5.935500000000000000e+04
-5.580500000000000000e+04
-5.789400000000000000e+04
-6.287300000000000000e+04
-6.375200000000000000e+04
-5.937500000000000000e+04
-5.580000000000000000e+04
-5.786400000000000000e+04
-6.284600000000000000e+04
-6.376000000000000000e+04
-5.939100000000000000e+04
-5.579600000000000000e+04
-5.785400000000000000e+04
-6.282900000000000000e+04
-6.375900000000000000e+04
-5.939900000000000000e+04
-5.580100000000000000e+04
-5.784900000000000000e+04
-6.282100000000000000e+04
-6.375200000000000000e+04
-5.941100000000000000e+04
-5.580400000000000000e+04
-5.781400000000000000e+04
-6.279600000000000000e+04
-6.376100000000000000e+04
-5.943200000000000000e+04
-5.580700000000000000e+04
-5.781100000000000000e+04
-6.280200000000000000e+04
-6.376600000000000000e+04
-5.944600000000000000e+04
-5.581200000000000000e+04
-5.779700000000000000e+04
-6.276400000000000000e+04
-6.375800000000000000e+04
-5.944500000000000000e+04
-5.578700000000000000e+04
-5.775200000000000000e+04
-6.275000000000000000e+04
-6.377900000000000000e+04
-5.949300000000000000e+04
-5.585300000000000000e+04
-5.782600000000000000e+04
-6.277600000000000000e+04
-6.373900000000000000e+04
-5.942700000000000000e+04
-5.579400000000000000e+04
-5.771400000000000000e+04
-6.267900000000000000e+04
-6.375200000000000000e+04
-5.952900000000000000e+04
-5.593600000000000000e+04
-5.771900000000000000e+04
-6.267200000000000000e+04
-6.376600000000000000e+04
-5.952300000000000000e+04
-5.580300000000000000e+04
-5.768300000000000000e+04
-6.265200000000000000e+04
-6.375900000000000000e+04
-5.952700000000000000e+04
-5.580100000000000000e+04
-5.765900000000000000e+04
-6.263500000000000000e+04
-6.376600000000000000e+04
-5.954700000000000000e+04
-5.580800000000000000e+04
-5.765900000000000000e+04
-6.263200000000000000e+04
-6.376600000000000000e+04
-5.956400000000000000e+04
-5.580700000000000000e+04
-5.762800000000000000e+04
-6.259100000000000000e+04
-6.377100000000000000e+04
-5.957700000000000000e+04
-5.580300000000000000e+04
-5.760400000000000000e+04
-6.256700000000000000e+04
-6.375700000000000000e+04
-5.959100000000000000e+04
-5.580000000000000000e+04
-5.757700000000000000e+04
-6.254700000000000000e+04
-6.377400000000000000e+04
-5.960900000000000000e+04
-5.579700000000000000e+04
-5.755100000000000000e+04
-6.251900000000000000e+04
-6.377700000000000000e+04
-5.963100000000000000e+04
-5.582400000000000000e+04
-5.755400000000000000e+04
-6.249800000000000000e+04
-6.398800000000000000e+04
-5.973100000000000000e+04
-5.578200000000000000e+04
-5.750600000000000000e+04
-6.247600000000000000e+04
-6.376100000000000000e+04
-5.964000000000000000e+04
-5.578900000000000000e+04
-5.748200000000000000e+04
-6.245100000000000000e+04
-6.375400000000000000e+04
-5.964700000000000000e+04
-5.577600000000000000e+04
-5.747000000000000000e+04
-6.245900000000000000e+04
-6.377900000000000000e+04
-5.966900000000000000e+04
-5.576500000000000000e+04
-5.743700000000000000e+04
-6.239800000000000000e+04
-6.374600000000000000e+04
-5.969100000000000000e+04
-5.577700000000000000e+04
-5.745000000000000000e+04
-6.241400000000000000e+04
-6.374700000000000000e+04
-5.967000000000000000e+04
-5.575700000000000000e+04
-5.738400000000000000e+04
-6.236200000000000000e+04
-6.375900000000000000e+04
-5.970100000000000000e+04
-5.575600000000000000e+04
-5.736000000000000000e+04
-6.233900000000000000e+04
-6.374900000000000000e+04
-5.971200000000000000e+04
-5.575100000000000000e+04
-5.733500000000000000e+04
-6.231200000000000000e+04
-6.374900000000000000e+04
-5.972500000000000000e+04
-5.574700000000000000e+04
-5.731100000000000000e+04
-6.228800000000000000e+04
-6.374000000000000000e+04
-5.974300000000000000e+04
-5.575500000000000000e+04
-5.729800000000000000e+04
-6.226900000000000000e+04
-6.375500000000000000e+04
-5.975800000000000000e+04
-5.575600000000000000e+04
-5.728100000000000000e+04
-6.225700000000000000e+04
-6.374600000000000000e+04
-5.976400000000000000e+04
-5.574100000000000000e+04
-5.723900000000000000e+04
-6.222300000000000000e+04
-6.375100000000000000e+04
-5.978300000000000000e+04
-5.574100000000000000e+04
-5.721700000000000000e+04
-6.220300000000000000e+04
-6.375000000000000000e+04
-5.979900000000000000e+04
-5.573900000000000000e+04
-5.720400000000000000e+04
-6.218400000000000000e+04
-6.375300000000000000e+04
-5.980400000000000000e+04
-5.573100000000000000e+04
-5.717600000000000000e+04
-6.215500000000000000e+04
-6.374300000000000000e+04
-5.981700000000000000e+04
-5.572700000000000000e+04
-5.715700000000000000e+04
-6.213100000000000000e+04
-6.374200000000000000e+04
-5.984000000000000000e+04
-5.572800000000000000e+04
-5.718600000000000000e+04
-6.238900000000000000e+04
-6.406600000000000000e+04
-6.012100000000000000e+04
-5.577000000000000000e+04
-5.712300000000000000e+04
-6.210800000000000000e+04
-6.377800000000000000e+04
-5.989300000000000000e+04
-5.574200000000000000e+04
-5.709000000000000000e+04
-6.207600000000000000e+04
-6.377300000000000000e+04
-5.989900000000000000e+04
-5.573500000000000000e+04
-5.708600000000000000e+04
-6.205400000000000000e+04
-6.375400000000000000e+04
-5.990600000000000000e+04
-5.575100000000000000e+04
-5.706500000000000000e+04
-6.206300000000000000e+04
-6.379200000000000000e+04
-5.994100000000000000e+04
-5.575100000000000000e+04
-5.706400000000000000e+04
-6.204100000000000000e+04
-6.376400000000000000e+04
-5.993900000000000000e+04
-5.576000000000000000e+04
-5.704700000000000000e+04
-6.201100000000000000e+04
-6.375900000000000000e+04
-5.995200000000000000e+04
-5.575900000000000000e+04
-5.703300000000000000e+04
-6.199200000000000000e+04
-6.375900000000000000e+04
-5.996400000000000000e+04
-5.576000000000000000e+04
-5.702600000000000000e+04
-6.199000000000000000e+04
-6.375600000000000000e+04
-5.996800000000000000e+04
-5.576800000000000000e+04
-5.707000000000000000e+04
-6.215300000000000000e+04
-6.378600000000000000e+04
-6.001200000000000000e+04
-5.578200000000000000e+04
-5.699200000000000000e+04
-6.193600000000000000e+04
-6.376200000000000000e+04
-6.001200000000000000e+04
-5.577200000000000000e+04
-5.697100000000000000e+04
-6.191600000000000000e+04
-6.376300000000000000e+04
-6.003100000000000000e+04
-5.578800000000000000e+04
-5.697000000000000000e+04
-6.190600000000000000e+04
-6.377600000000000000e+04
-6.006100000000000000e+04
-5.578500000000000000e+04
-5.694700000000000000e+04
-6.189500000000000000e+04
-6.377100000000000000e+04
-6.008500000000000000e+04
-5.580900000000000000e+04
-5.694600000000000000e+04
-6.188100000000000000e+04
-6.378900000000000000e+04
-6.010200000000000000e+04
-5.581900000000000000e+04
-5.694000000000000000e+04
-6.186600000000000000e+04
-6.379900000000000000e+04
-6.014500000000000000e+04
-5.585200000000000000e+04
-5.693200000000000000e+04
-6.184000000000000000e+04
-6.380600000000000000e+04
-6.015900000000000000e+04
-5.583900000000000000e+04
-5.691800000000000000e+04
-6.184700000000000000e+04
-6.381200000000000000e+04
-6.018500000000000000e+04
-5.585400000000000000e+04
-5.688300000000000000e+04
-6.181200000000000000e+04
-6.382400000000000000e+04
-6.020200000000000000e+04
-5.585700000000000000e+04
-5.689700000000000000e+04
-6.180100000000000000e+04
-6.381200000000000000e+04
-6.022400000000000000e+04
-5.587100000000000000e+04
-5.687700000000000000e+04
-6.179200000000000000e+04
-6.382000000000000000e+04
-6.023600000000000000e+04
-5.587800000000000000e+04
-5.687900000000000000e+04
-6.178900000000000000e+04
-6.383300000000000000e+04
-6.028700000000000000e+04
-5.589400000000000000e+04
-5.686500000000000000e+04
-6.179600000000000000e+04
-6.387100000000000000e+04
-6.029500000000000000e+04
-5.588400000000000000e+04
-5.685000000000000000e+04
-6.175800000000000000e+04
-6.386900000000000000e+04
-6.033400000000000000e+04
-5.593200000000000000e+04
-5.687000000000000000e+04
-6.177600000000000000e+04
-6.388600000000000000e+04
-6.037100000000000000e+04
-5.596800000000000000e+04
-5.688600000000000000e+04
-6.177400000000000000e+04
-6.390200000000000000e+04
-6.042100000000000000e+04
-5.655400000000000000e+04
-5.748400000000000000e+04
-6.206600000000000000e+04
-6.410700000000000000e+04
-6.050200000000000000e+04
-5.599500000000000000e+04
-5.686900000000000000e+04
-6.174900000000000000e+04
-6.389900000000000000e+04
-6.044200000000000000e+04
-5.600100000000000000e+04
-5.685500000000000000e+04
-6.173400000000000000e+04
-6.392600000000000000e+04
-6.046300000000000000e+04
-5.600400000000000000e+04
-5.684300000000000000e+04
-6.173500000000000000e+04
-6.394600000000000000e+04
-6.049300000000000000e+04
-5.602100000000000000e+04
-5.683800000000000000e+04
-6.171500000000000000e+04
-6.394200000000000000e+04
-6.052700000000000000e+04
-5.604400000000000000e+04
-5.683900000000000000e+04
-6.171900000000000000e+04
-6.396700000000000000e+04
-6.055600000000000000e+04
-5.605700000000000000e+04
-5.682600000000000000e+04
-6.169900000000000000e+04
-6.398400000000000000e+04
-6.058200000000000000e+04
-5.605800000000000000e+04
-5.680500000000000000e+04
-6.167600000000000000e+04
-6.397700000000000000e+04
-6.067400000000000000e+04
-5.629400000000000000e+04
-5.683200000000000000e+04
-6.167400000000000000e+04
-6.400200000000000000e+04
-6.063600000000000000e+04
-5.608300000000000000e+04
-5.679400000000000000e+04
-6.168300000000000000e+04
-6.403600000000000000e+04
-6.066200000000000000e+04
-5.608700000000000000e+04
-5.678100000000000000e+04
-6.166600000000000000e+04
-6.405800000000000000e+04
-6.072500000000000000e+04
-5.612900000000000000e+04
-5.678400000000000000e+04
-6.165700000000000000e+04
-6.405400000000000000e+04
-6.073100000000000000e+04
-5.612600000000000000e+04
-5.676100000000000000e+04
-6.163500000000000000e+04
-6.406700000000000000e+04
-6.075400000000000000e+04
-5.613500000000000000e+04
-5.674400000000000000e+04
-6.162600000000000000e+04
-6.409200000000000000e+04
-6.078900000000000000e+04
-5.615600000000000000e+04
-5.691400000000000000e+04
-6.167000000000000000e+04
-6.410000000000000000e+04
-6.082200000000000000e+04
-5.615500000000000000e+04
-5.673200000000000000e+04
-6.161500000000000000e+04
-6.412900000000000000e+04
-6.086500000000000000e+04
-5.618100000000000000e+04
-5.673200000000000000e+04
-6.161500000000000000e+04
-6.414900000000000000e+04
-6.090200000000000000e+04
-5.620400000000000000e+04
-5.673600000000000000e+04
-6.162500000000000000e+04
-6.417700000000000000e+04
-6.092400000000000000e+04
-5.621400000000000000e+04
-5.673600000000000000e+04
-6.161400000000000000e+04
-6.419700000000000000e+04
-6.097500000000000000e+04
-5.623300000000000000e+04
-5.671500000000000000e+04
-6.159400000000000000e+04
-6.421500000000000000e+04
-6.100500000000000000e+04
-5.625100000000000000e+04
-5.670600000000000000e+04
-6.157900000000000000e+04
-6.422400000000000000e+04
-6.103500000000000000e+04
-5.627000000000000000e+04
-5.670400000000000000e+04
-6.156600000000000000e+04
-6.425600000000000000e+04
-6.108200000000000000e+04
-5.629100000000000000e+04
-5.670700000000000000e+04
-6.156800000000000000e+04
-6.426700000000000000e+04
-6.111000000000000000e+04
-5.630400000000000000e+04
-5.670900000000000000e+04
-6.156700000000000000e+04
-6.428900000000000000e+04
-6.115200000000000000e+04
-5.634400000000000000e+04
-5.670400000000000000e+04
-6.155600000000000000e+04
-6.430700000000000000e+04
-6.120200000000000000e+04
-5.637100000000000000e+04
-5.669600000000000000e+04
-6.154600000000000000e+04
-6.435400000000000000e+04
-6.163100000000000000e+04
-5.659800000000000000e+04
-5.670800000000000000e+04
-6.154900000000000000e+04
-6.433800000000000000e+04
-6.126200000000000000e+04
-5.640500000000000000e+04
-5.669900000000000000e+04
-6.155100000000000000e+04
-6.434300000000000000e+04
-6.127700000000000000e+04
-5.641400000000000000e+04
-5.669100000000000000e+04
-6.152300000000000000e+04
-6.435000000000000000e+04
-6.131900000000000000e+04
-5.644400000000000000e+04
-5.670500000000000000e+04
-6.154400000000000000e+04
-6.437600000000000000e+04
-6.132400000000000000e+04
-5.645400000000000000e+04
-5.670500000000000000e+04
-6.154000000000000000e+04
-6.440900000000000000e+04
-6.141500000000000000e+04
-5.652700000000000000e+04
-5.672900000000000000e+04
-6.153500000000000000e+04
-6.442700000000000000e+04
-6.145200000000000000e+04
-5.655100000000000000e+04
-5.672800000000000000e+04
-6.152200000000000000e+04
-6.442800000000000000e+04
-6.146700000000000000e+04
-5.655900000000000000e+04
-5.669500000000000000e+04
-6.150500000000000000e+04
-6.446000000000000000e+04
-6.148900000000000000e+04
-5.654700000000000000e+04
-5.668200000000000000e+04
-6.147200000000000000e+04
-6.444600000000000000e+04
-6.170100000000000000e+04
-5.661500000000000000e+04
-5.670400000000000000e+04
-6.149900000000000000e+04
-6.444700000000000000e+04
-6.155200000000000000e+04
-5.665500000000000000e+04
-5.673200000000000000e+04
-6.146200000000000000e+04
-6.443200000000000000e+04
-6.160400000000000000e+04
-5.669600000000000000e+04
-5.675100000000000000e+04
-6.145900000000000000e+04
-6.447200000000000000e+04
-6.164500000000000000e+04
-5.670700000000000000e+04
-5.671400000000000000e+04
-6.144100000000000000e+04
-6.447300000000000000e+04
-6.163600000000000000e+04
-5.668700000000000000e+04
-5.671700000000000000e+04
-6.145900000000000000e+04
-6.449900000000000000e+04
-6.167200000000000000e+04
-5.670700000000000000e+04
-5.670500000000000000e+04
-6.143300000000000000e+04
-6.449700000000000000e+04
-6.169300000000000000e+04
-5.672700000000000000e+04
-5.669500000000000000e+04
-6.142400000000000000e+04
-6.451500000000000000e+04
-6.173200000000000000e+04
-5.675400000000000000e+04
-5.670500000000000000e+04
-6.143100000000000000e+04
-6.454200000000000000e+04
-6.177700000000000000e+04
-5.678700000000000000e+04
-5.670700000000000000e+04
-6.142200000000000000e+04
-6.456000000000000000e+04
-6.183500000000000000e+04
-5.682700000000000000e+04
-5.674200000000000000e+04
-6.145800000000000000e+04
-6.456800000000000000e+04
-6.187300000000000000e+04
-5.690400000000000000e+04
-5.677700000000000000e+04
-6.140700000000000000e+04
-6.455400000000000000e+04
-6.188100000000000000e+04
-5.686400000000000000e+04
-5.671600000000000000e+04
-6.141400000000000000e+04
-6.460100000000000000e+04
-6.191400000000000000e+04
-5.689900000000000000e+04
-5.672900000000000000e+04
-6.140800000000000000e+04
-6.461800000000000000e+04
-6.195200000000000000e+04
-5.693200000000000000e+04
-5.677200000000000000e+04
-6.142700000000000000e+04
-6.467700000000000000e+04
-6.203600000000000000e+04
-5.697900000000000000e+04
-5.683600000000000000e+04
-6.136700000000000000e+04
-6.446800000000000000e+04
-6.230200000000000000e+04
-5.724600000000000000e+04
-5.695600000000000000e+04
-6.165700000000000000e+04
-6.520400000000000000e+04
-6.235400000000000000e+04
-5.715400000000000000e+04
-5.692200000000000000e+04
-6.140600000000000000e+04
-6.461800000000000000e+04
-6.202400000000000000e+04
-5.718800000000000000e+04
-5.696800000000000000e+04
-6.119900000000000000e+04
-6.461900000000000000e+04
-6.200200000000000000e+04
-5.670200000000000000e+04
-5.651100000000000000e+04
-6.139900000000000000e+04
-6.485300000000000000e+04
-6.245600000000000000e+04
-5.737800000000000000e+04
-5.692100000000000000e+04
-6.147000000000000000e+04
-6.512000000000000000e+04
-6.276200000000000000e+04
-5.770100000000000000e+04
-5.703400000000000000e+04
-6.171700000000000000e+04
-6.578500000000000000e+04
-6.382100000000000000e+04
-5.760100000000000000e+04
-5.633700000000000000e+04
-6.124100000000000000e+04
-6.544900000000000000e+04
-6.313100000000000000e+04
-5.771400000000000000e+04
-5.720900000000000000e+04
-6.186600000000000000e+04
-6.554200000000000000e+04
-6.343300000000000000e+04
-5.830600000000000000e+04
-5.758700000000000000e+04
-6.219900000000000000e+04
-6.624700000000000000e+04
-6.400700000000000000e+04
-5.853200000000000000e+04
-5.768400000000000000e+04
-6.266700000000000000e+04
-6.662700000000000000e+04
-6.418900000000000000e+04
-5.856900000000000000e+04
-5.789700000000000000e+04
-6.315600000000000000e+04
-6.727100000000000000e+04
-6.449900000000000000e+04
-5.904100000000000000e+04
-5.853600000000000000e+04
-6.353200000000000000e+04
-6.732900000000000000e+04
-6.442400000000000000e+04
-5.872700000000000000e+04
-5.800900000000000000e+04
-6.322800000000000000e+04
-6.696900000000000000e+04
-6.446900000000000000e+04
-5.814900000000000000e+04
-5.724700000000000000e+04
-6.277900000000000000e+04
-6.810400000000000000e+04
-6.571200000000000000e+04
-5.941500000000000000e+04
-5.946100000000000000e+04
-6.442400000000000000e+04
-6.673600000000000000e+04
-6.356900000000000000e+04
-5.829200000000000000e+04
-5.903200000000000000e+04
-6.237100000000000000e+04
-6.645200000000000000e+04
-6.352100000000000000e+04
-5.769600000000000000e+04
-5.757900000000000000e+04
-6.307900000000000000e+04
-6.693500000000000000e+04
-6.352600000000000000e+04
-5.832800000000000000e+04
-5.942200000000000000e+04
-6.377200000000000000e+04
-6.622700000000000000e+04
-6.460400000000000000e+04
-5.857600000000000000e+04
-5.663200000000000000e+04
-6.109900000000000000e+04
-6.506800000000000000e+04
-6.295700000000000000e+04
-5.871300000000000000e+04
-5.764200000000000000e+04
-6.131400000000000000e+04
-6.490100000000000000e+04
-6.335900000000000000e+04
-5.816900000000000000e+04
-5.756300000000000000e+04
-6.183400000000000000e+04
-6.537200000000000000e+04
-6.338700000000000000e+04
-5.817000000000000000e+04
-5.708400000000000000e+04
-6.131200000000000000e+04
-6.575100000000000000e+04
-6.366200000000000000e+04
-5.807200000000000000e+04
-5.702900000000000000e+04
-6.140000000000000000e+04
-6.572600000000000000e+04
-6.352600000000000000e+04
-5.805700000000000000e+04
-5.707300000000000000e+04
-6.123200000000000000e+04
-6.498300000000000000e+04
-6.295400000000000000e+04
-5.811400000000000000e+04
-5.726400000000000000e+04
-6.137900000000000000e+04
-6.531900000000000000e+04
-6.320900000000000000e+04
-5.803300000000000000e+04
-5.697800000000000000e+04
-6.104000000000000000e+04
-6.530500000000000000e+04
-6.344600000000000000e+04
-5.791700000000000000e+04
-5.670200000000000000e+04
-6.113900000000000000e+04
-6.534600000000000000e+04
-6.405400000000000000e+04
-5.849700000000000000e+04
-5.706900000000000000e+04
-6.128400000000000000e+04
-6.531600000000000000e+04
-6.346100000000000000e+04
-5.788100000000000000e+04
-5.679400000000000000e+04
-6.124100000000000000e+04
-6.539300000000000000e+04
-6.336400000000000000e+04
-5.787700000000000000e+04
-5.677200000000000000e+04
-6.121200000000000000e+04
-6.548200000000000000e+04
-6.371100000000000000e+04
-5.799200000000000000e+04
-5.684800000000000000e+04
-6.137500000000000000e+04
-6.526500000000000000e+04
-6.350900000000000000e+04
-5.807600000000000000e+04
-5.667800000000000000e+04
-6.098200000000000000e+04
-6.530000000000000000e+04
-6.368900000000000000e+04
-5.818400000000000000e+04
-5.665700000000000000e+04
-6.103100000000000000e+04
-6.540600000000000000e+04
-6.355900000000000000e+04
-5.811400000000000000e+04
-5.686000000000000000e+04
-6.102600000000000000e+04
-6.520500000000000000e+04
-6.351400000000000000e+04
-5.796700000000000000e+04
-5.661500000000000000e+04
-6.097600000000000000e+04
-6.523100000000000000e+04
-6.356200000000000000e+04
-5.802700000000000000e+04
-5.674000000000000000e+04
-6.108100000000000000e+04
-6.531100000000000000e+04
-6.371700000000000000e+04
-5.819300000000000000e+04
-5.670400000000000000e+04
-6.090300000000000000e+04
-6.534900000000000000e+04
-6.371600000000000000e+04
-5.825900000000000000e+04
-5.686200000000000000e+04
-6.103600000000000000e+04
-6.533600000000000000e+04
-6.378100000000000000e+04
-5.818600000000000000e+04
-5.676500000000000000e+04
-6.092500000000000000e+04
-6.517900000000000000e+04
-6.366700000000000000e+04
-5.830500000000000000e+04
-5.692600000000000000e+04
-6.099100000000000000e+04
-6.515900000000000000e+04
-6.338300000000000000e+04
-5.818600000000000000e+04
-5.688200000000000000e+04
-6.081000000000000000e+04
-6.500900000000000000e+04
-6.352300000000000000e+04
-5.818200000000000000e+04
-5.667900000000000000e+04
-6.076500000000000000e+04
-6.500600000000000000e+04
-6.346700000000000000e+04
-5.815600000000000000e+04
-5.668200000000000000e+04
-6.078200000000000000e+04
-6.497100000000000000e+04
-6.343700000000000000e+04
-5.819600000000000000e+04
-5.676100000000000000e+04
-6.076200000000000000e+04
-6.491900000000000000e+04
-6.337900000000000000e+04
-5.814000000000000000e+04
-5.675500000000000000e+04
-6.079300000000000000e+04
-6.492900000000000000e+04
-6.331400000000000000e+04
-5.810600000000000000e+04
-5.677400000000000000e+04
-6.083000000000000000e+04
-6.491100000000000000e+04
-6.336000000000000000e+04
-5.819400000000000000e+04
-5.683000000000000000e+04
-6.081600000000000000e+04
-6.493600000000000000e+04
-6.338200000000000000e+04
-5.817600000000000000e+04
-5.677600000000000000e+04
-6.081400000000000000e+04
-6.494800000000000000e+04
-6.339700000000000000e+04
-5.817300000000000000e+04
-5.676500000000000000e+04
-6.075200000000000000e+04
-6.489000000000000000e+04
-6.337800000000000000e+04
-5.814500000000000000e+04
-5.670900000000000000e+04
-6.070400000000000000e+04
-6.486600000000000000e+04
-6.336700000000000000e+04
-5.817800000000000000e+04
-5.669700000000000000e+04
-6.066100000000000000e+04
-6.485500000000000000e+04
-6.338100000000000000e+04
-5.816100000000000000e+04
-5.668200000000000000e+04
-6.063400000000000000e+04
-6.482900000000000000e+04
-6.336900000000000000e+04
-5.813900000000000000e+04
-5.666100000000000000e+04
-6.067700000000000000e+04
-6.490200000000000000e+04
-6.353900000000000000e+04
-5.817700000000000000e+04
-5.665200000000000000e+04
-6.059700000000000000e+04
-6.480900000000000000e+04
-6.339900000000000000e+04
-5.818600000000000000e+04
-5.664200000000000000e+04
-6.057300000000000000e+04
-6.481700000000000000e+04
-6.341100000000000000e+04
-5.818700000000000000e+04
-5.664000000000000000e+04
-6.057600000000000000e+04
-6.480700000000000000e+04
-6.343400000000000000e+04
-5.821900000000000000e+04
-5.666400000000000000e+04
-6.055500000000000000e+04
-6.482900000000000000e+04
-6.347700000000000000e+04
-5.823800000000000000e+04
-5.663100000000000000e+04
-6.052800000000000000e+04
-6.482200000000000000e+04
-6.350600000000000000e+04
-5.827300000000000000e+04
-5.662200000000000000e+04
-6.049700000000000000e+04
-6.481000000000000000e+04
-6.350800000000000000e+04
-5.827400000000000000e+04
-5.661200000000000000e+04
-6.048200000000000000e+04
-6.481000000000000000e+04
-6.350800000000000000e+04
-5.827700000000000000e+04
-5.658900000000000000e+04
-6.062500000000000000e+04
-6.498500000000000000e+04
-6.354700000000000000e+04
-5.829200000000000000e+04
-5.658100000000000000e+04
-6.043100000000000000e+04
-6.479400000000000000e+04
-6.356100000000000000e+04
-5.832500000000000000e+04
-5.658100000000000000e+04
-6.040600000000000000e+04
-6.478400000000000000e+04
-6.357100000000000000e+04
-5.833400000000000000e+04
-5.660800000000000000e+04
-6.041700000000000000e+04
-6.480600000000000000e+04
-6.359100000000000000e+04
-5.836700000000000000e+04
-5.658100000000000000e+04
-6.037000000000000000e+04
-6.478100000000000000e+04
-6.361400000000000000e+04
-5.837900000000000000e+04
-5.656400000000000000e+04
-6.034700000000000000e+04
-6.478600000000000000e+04
-6.364300000000000000e+04
-5.840900000000000000e+04
-5.657700000000000000e+04
-6.034600000000000000e+04
-6.478100000000000000e+04
-6.366100000000000000e+04
-5.852000000000000000e+04
-5.676500000000000000e+04
-6.035200000000000000e+04
-6.480600000000000000e+04
-6.369400000000000000e+04
-5.847000000000000000e+04
-5.659300000000000000e+04
-6.032900000000000000e+04
-6.480100000000000000e+04
-6.372200000000000000e+04
-5.849400000000000000e+04
-5.660600000000000000e+04
-6.033800000000000000e+04
-6.481200000000000000e+04
-6.375500000000000000e+04
-5.851900000000000000e+04
-5.661400000000000000e+04
-6.031100000000000000e+04
-6.479800000000000000e+04
-6.376600000000000000e+04
-5.853900000000000000e+04
-5.660900000000000000e+04
-6.031200000000000000e+04
-6.482300000000000000e+04
-6.379600000000000000e+04
-5.856600000000000000e+04
-5.661600000000000000e+04
-6.029400000000000000e+04
-6.481300000000000000e+04
-6.382400000000000000e+04
-5.859600000000000000e+04
-5.662000000000000000e+04
-6.028300000000000000e+04
-6.481600000000000000e+04
-6.384700000000000000e+04
-5.863400000000000000e+04
-5.662200000000000000e+04
-6.026700000000000000e+04
-6.481100000000000000e+04
-6.386600000000000000e+04
-5.866500000000000000e+04
-5.663800000000000000e+04
-6.025200000000000000e+04
-6.481400000000000000e+04
-6.388800000000000000e+04
-5.868400000000000000e+04
-5.663800000000000000e+04
-6.024600000000000000e+04
-6.482200000000000000e+04
-6.392400000000000000e+04
-5.872100000000000000e+04
-5.664100000000000000e+04
-6.023400000000000000e+04
-6.481900000000000000e+04
-6.393700000000000000e+04
-5.886100000000000000e+04
-5.702400000000000000e+04
-6.026500000000000000e+04
-6.482200000000000000e+04
-6.396700000000000000e+04
-5.876900000000000000e+04
-5.666300000000000000e+04
-6.022400000000000000e+04
-6.483100000000000000e+04
-6.400200000000000000e+04
-5.880200000000000000e+04
-5.666800000000000000e+04
-6.022400000000000000e+04
-6.483100000000000000e+04
-6.401600000000000000e+04
-5.883100000000000000e+04
-5.667400000000000000e+04
-6.020200000000000000e+04
-6.484000000000000000e+04
-6.403900000000000000e+04
-5.885900000000000000e+04
-5.671500000000000000e+04
-6.023700000000000000e+04
-6.480300000000000000e+04
-6.399000000000000000e+04
-5.886900000000000000e+04
-5.676100000000000000e+04
-6.025700000000000000e+04
-6.482000000000000000e+04
-6.402200000000000000e+04
-5.891000000000000000e+04
-5.678400000000000000e+04
-6.027400000000000000e+04
-6.484200000000000000e+04
-6.404700000000000000e+04
-5.893400000000000000e+04
-5.679500000000000000e+04
-6.027100000000000000e+04
-6.484300000000000000e+04
-6.406700000000000000e+04
-5.895600000000000000e+04
-5.679400000000000000e+04
-6.024700000000000000e+04
-6.482700000000000000e+04
-6.408000000000000000e+04
-5.898100000000000000e+04
-5.680900000000000000e+04
-6.024800000000000000e+04
-6.483700000000000000e+04
-6.410600000000000000e+04
-5.901600000000000000e+04
-5.683700000000000000e+04
-6.026100000000000000e+04
-6.484700000000000000e+04
-6.413200000000000000e+04
-5.904700000000000000e+04
-5.683600000000000000e+04
-6.023100000000000000e+04
-6.482900000000000000e+04
-6.415100000000000000e+04
-5.907300000000000000e+04
-5.684800000000000000e+04
-6.022400000000000000e+04
-6.480700000000000000e+04
-6.413900000000000000e+04
-5.909100000000000000e+04
-5.685900000000000000e+04
-6.023400000000000000e+04
-6.505800000000000000e+04
-6.425200000000000000e+04
-5.912100000000000000e+04
-5.686600000000000000e+04
-6.019700000000000000e+04
-6.479900000000000000e+04
-6.417400000000000000e+04
-5.915000000000000000e+04
-5.687600000000000000e+04
-6.018800000000000000e+04
-6.478400000000000000e+04
-6.418200000000000000e+04
-5.916600000000000000e+04
-5.689500000000000000e+04
-6.018900000000000000e+04
-6.477900000000000000e+04
-6.419900000000000000e+04
-5.920600000000000000e+04
-5.691200000000000000e+04
-6.017900000000000000e+04
-6.476600000000000000e+04
-6.421000000000000000e+04
-5.922300000000000000e+04
-5.692000000000000000e+04
-6.017100000000000000e+04
-6.475900000000000000e+04
-6.423400000000000000e+04
-5.926600000000000000e+04
-5.695000000000000000e+04
-6.016300000000000000e+04
-6.474400000000000000e+04
-6.423100000000000000e+04
-5.928400000000000000e+04
-5.696200000000000000e+04
-6.016100000000000000e+04
-6.474000000000000000e+04
-6.425100000000000000e+04
-5.931700000000000000e+04
-5.697100000000000000e+04
-6.015400000000000000e+04
-6.473000000000000000e+04
-6.426600000000000000e+04
-5.935200000000000000e+04
-5.698100000000000000e+04
-6.013900000000000000e+04
-6.471300000000000000e+04
-6.427000000000000000e+04
-5.936400000000000000e+04
-5.697600000000000000e+04
-6.012200000000000000e+04
-6.470600000000000000e+04
-6.427900000000000000e+04
-5.938400000000000000e+04
-5.699700000000000000e+04
-6.011700000000000000e+04
-6.468800000000000000e+04
-6.427700000000000000e+04
-5.940400000000000000e+04
-5.699600000000000000e+04
-6.007900000000000000e+04
-6.491400000000000000e+04
-6.463400000000000000e+04
-5.943900000000000000e+04
-5.699800000000000000e+04
-6.006900000000000000e+04
-6.465600000000000000e+04
-6.430100000000000000e+04
-5.944600000000000000e+04
-5.699800000000000000e+04
-6.005300000000000000e+04
-6.464400000000000000e+04
-6.430700000000000000e+04
-5.946300000000000000e+04
-5.700500000000000000e+04
-6.004200000000000000e+04
-6.464000000000000000e+04
-6.431900000000000000e+04
-5.949200000000000000e+04
-5.701200000000000000e+04
-6.002600000000000000e+04
-6.462900000000000000e+04
-6.432200000000000000e+04
-5.949700000000000000e+04
-5.700000000000000000e+04
-6.001300000000000000e+04
-6.462400000000000000e+04
-6.433400000000000000e+04
-5.951400000000000000e+04
-5.700400000000000000e+04
-6.000200000000000000e+04
-6.460400000000000000e+04
-6.433900000000000000e+04
-5.952800000000000000e+04
-5.699600000000000000e+04
-5.995900000000000000e+04
-6.458700000000000000e+04
-6.435600000000000000e+04
-5.955500000000000000e+04
-5.698300000000000000e+04
-5.993300000000000000e+04
-6.457600000000000000e+04
-6.437400000000000000e+04
-5.956700000000000000e+04
-5.698400000000000000e+04
-5.992200000000000000e+04
-6.456400000000000000e+04
-6.436700000000000000e+04
-5.958200000000000000e+04
-5.698600000000000000e+04
-5.990200000000000000e+04
-6.455600000000000000e+04
-6.437800000000000000e+04
-5.959600000000000000e+04
-5.697200000000000000e+04
-5.988100000000000000e+04
-6.454100000000000000e+04
-6.438900000000000000e+04
-5.962400000000000000e+04
-5.699100000000000000e+04
-5.987600000000000000e+04
-6.453800000000000000e+04
-6.440900000000000000e+04
-5.964000000000000000e+04
-5.698100000000000000e+04
-5.985500000000000000e+04
-6.453600000000000000e+04
-6.442100000000000000e+04
-5.965100000000000000e+04
-5.698200000000000000e+04
-5.983400000000000000e+04
-6.451900000000000000e+04
-6.443000000000000000e+04
-5.967000000000000000e+04
-5.697100000000000000e+04
-5.981700000000000000e+04
-6.451500000000000000e+04
-6.446200000000000000e+04
-5.971200000000000000e+04
-5.697600000000000000e+04
-5.978700000000000000e+04
-6.449800000000000000e+04
-6.446300000000000000e+04
-5.972200000000000000e+04
-5.697400000000000000e+04
-5.978100000000000000e+04
-6.449600000000000000e+04
-6.446600000000000000e+04
-5.973400000000000000e+04
-5.696100000000000000e+04
-5.974500000000000000e+04
-6.447100000000000000e+04
-6.449600000000000000e+04
-5.976200000000000000e+04
-5.695700000000000000e+04
-5.972200000000000000e+04
-6.447100000000000000e+04
-6.450900000000000000e+04
-5.977300000000000000e+04
-5.694400000000000000e+04
-5.969400000000000000e+04
-6.446200000000000000e+04
-6.451600000000000000e+04
-5.978900000000000000e+04
-5.693700000000000000e+04
-5.966600000000000000e+04
-6.443900000000000000e+04
-6.452700000000000000e+04
-5.980200000000000000e+04
-5.692600000000000000e+04
-5.964800000000000000e+04
-6.444100000000000000e+04
-6.455200000000000000e+04
-5.981800000000000000e+04
-5.691900000000000000e+04
-5.962000000000000000e+04
-6.440600000000000000e+04
-6.454700000000000000e+04
-5.985000000000000000e+04
-5.691700000000000000e+04
-5.959000000000000000e+04
-6.439400000000000000e+04
-6.455700000000000000e+04
-5.986700000000000000e+04
-5.691400000000000000e+04
-5.955900000000000000e+04
-6.437500000000000000e+04
-6.456700000000000000e+04
-5.991200000000000000e+04
-5.725700000000000000e+04
-5.963700000000000000e+04
-6.436700000000000000e+04
-6.458200000000000000e+04
-5.989000000000000000e+04
-5.689100000000000000e+04
-5.951400000000000000e+04
-6.434800000000000000e+04
-6.459200000000000000e+04
-5.991700000000000000e+04
-5.688600000000000000e+04
-5.948900000000000000e+04
-6.432900000000000000e+04
-6.459200000000000000e+04
-5.992700000000000000e+04
-5.688000000000000000e+04
-5.947300000000000000e+04
-6.432800000000000000e+04
-6.461800000000000000e+04
-5.995600000000000000e+04
-5.688700000000000000e+04
-5.945600000000000000e+04
-6.438700000000000000e+04
-6.480800000000000000e+04
-5.997600000000000000e+04
-5.688400000000000000e+04
-5.944500000000000000e+04
-6.431400000000000000e+04
-6.464200000000000000e+04
-5.998400000000000000e+04
-5.687900000000000000e+04
-5.942000000000000000e+04
-6.429900000000000000e+04
-6.464600000000000000e+04
-6.000500000000000000e+04
-5.689000000000000000e+04
-5.941900000000000000e+04
-6.430300000000000000e+04
-6.466600000000000000e+04
-6.001200000000000000e+04
-5.687100000000000000e+04
-5.939600000000000000e+04
-6.427500000000000000e+04
-6.466700000000000000e+04
-6.004000000000000000e+04
-5.688100000000000000e+04
-5.936900000000000000e+04
-6.425700000000000000e+04
-6.467600000000000000e+04
-6.006100000000000000e+04
-5.688900000000000000e+04
-5.934900000000000000e+04
-6.425100000000000000e+04
-6.469600000000000000e+04
-6.008400000000000000e+04
-5.688500000000000000e+04
-5.933500000000000000e+04
-6.424600000000000000e+04
-6.470200000000000000e+04
-6.010300000000000000e+04
-5.689000000000000000e+04
-5.932600000000000000e+04
-6.423200000000000000e+04
-6.471100000000000000e+04
-6.012600000000000000e+04
-5.689900000000000000e+04
-5.933000000000000000e+04
-6.422800000000000000e+04
-6.472200000000000000e+04
-6.015100000000000000e+04
-5.690100000000000000e+04
-5.930400000000000000e+04
-6.422400000000000000e+04
-6.474800000000000000e+04
-6.017600000000000000e+04
-5.691900000000000000e+04
-5.929900000000000000e+04
-6.420800000000000000e+04
-6.474900000000000000e+04
-6.019800000000000000e+04
-5.692400000000000000e+04
-5.929100000000000000e+04
-6.420600000000000000e+04
-6.475800000000000000e+04
-6.022200000000000000e+04
-5.693400000000000000e+04
-5.928400000000000000e+04
-6.419200000000000000e+04
-6.477600000000000000e+04
-6.025000000000000000e+04
-5.693300000000000000e+04
-5.925700000000000000e+04
-6.417400000000000000e+04
-6.478100000000000000e+04
-6.026700000000000000e+04
-5.693800000000000000e+04
-5.924300000000000000e+04
-6.416400000000000000e+04
-6.479000000000000000e+04
-6.029600000000000000e+04
-5.694100000000000000e+04
-5.921800000000000000e+04
-6.414700000000000000e+04
-6.479400000000000000e+04
-6.031600000000000000e+04
-5.694500000000000000e+04
-5.920900000000000000e+04
-6.414200000000000000e+04
-6.482600000000000000e+04
-6.035500000000000000e+04
-5.696100000000000000e+04
-5.919900000000000000e+04
-6.413700000000000000e+04
-6.484300000000000000e+04
-6.038400000000000000e+04
-5.695900000000000000e+04
-5.918100000000000000e+04
-6.413800000000000000e+04
-6.485200000000000000e+04
-6.040100000000000000e+04
-5.696600000000000000e+04
-5.916900000000000000e+04
-6.411700000000000000e+04
-6.487100000000000000e+04
-6.042900000000000000e+04
-5.696600000000000000e+04
-5.915200000000000000e+04
-6.410600000000000000e+04
-6.512500000000000000e+04
-6.077000000000000000e+04
-5.700400000000000000e+04
-5.915100000000000000e+04
-6.410100000000000000e+04
