  -13.9128575247   -16.2179898423   -16.5231221599   -15.3282544774   -13.9667201283   -12.9385191125   -12.4103180968   -11.3821170810    -8.5487837477    -6.8821170810    -5.7154504143    -4.2154504143    -2.2154504143     1.4512162523     2.9512162523     2.6178829190     3.2845495857     4.9512162523     3.6178829190     1.1178829190    -2.2154504143    -6.5487837477   -10.0487837477   -14.0487837477   -17.5487837477   -21.7154504143   -26.2154504143   -28.3821170810   -29.3821170810   -31.8821170810   -31.0487837477   -30.2154504143   -29.7154504143   -29.7154504143   -29.2154504143   -29.2154504143   -28.7154504143   -27.0487837477   -23.0487837477   -19.3821170810   -15.0487837477    -8.8821170810    -1.3821170810     4.2845495857     6.9512162523     7.6178829190     5.2845495857     5.4512162523     6.2845495857     6.2845495857     6.1178829190     4.4512162523     4.6178829190     5.6178829190     3.2845495857     1.6178829190    -1.2154504143    -6.0487837477   -12.0487837477   -16.8821170810   -18.2154504143   -17.2154504143   -14.8821170810   -12.8821170810   -12.5487837477   -13.7154504143   -14.0487837477   -12.3821170810   -11.3821170810   -12.7154504143   -15.3821170810   -17.7154504143   -19.8821170810   -20.0487837477   -17.3821170810   -14.5487837477   -15.3821170810   -17.3821170810   -19.3821170810   -21.7154504143   -25.5487837477   -26.8821170810   -28.0487837477   -29.0487837477   -29.8821170810   -29.8821170810   -28.2154504143   -26.2154504143   -24.0487837477   -24.5487837477   -27.3821170810   -31.8821170810   -34.3821170810   -36.3821170810   -37.5487837477   -38.8821170810   -36.7154504143   -34.3821170810   -31.3821170810   -29.3821170810   -30.2154504143   -29.7154504143   -29.3821170810   -29.8821170810   -31.0487837477   -29.0487837477   -26.8821170810   -24.0487837477   -24.5487837477   -24.8821170810   -26.0487837477   -31.5487837477   -39.3821170810   -46.0487837477   -49.3821170810   -48.7154504143   -46.3821170810   -46.3821170810   -44.0487837477   -37.5487837477   -34.8821170810   -49.5487837477   -62.3821170810   -65.3821170810   -62.8821170810   -69.2154504143   -88.2154504143   -94.5487837477   -92.5487837477  -101.2154504143  -115.8821170810  -116.5487837477  -101.3821170810  -113.8821170810  -182.0487837477  -249.7154504143  -278.3821170810  -257.5487837477  -272.2154504143  -249.3821170810  -228.2154504143  -233.0487837477  -205.0487837477  -180.8821170810  -147.0487837477   -74.5487837477    29.6178829190   110.2845495857   175.1178829190   251.4512162523   364.1178829190   454.4512162523   517.9512162523   545.4512162523   596.6178829190   607.6178829190   601.9512162523   635.9512162523   663.7845495857   673.7845495857   654.6178829190   599.2845495857   517.6178829190   463.4512162523   393.6178829190   327.6178829190   285.9512162523   233.7845495857   187.1178829190   146.4512162523   103.1178829190    68.6178829190    34.6178829190   -27.2154504143  -127.8821170810  -190.5487837477  -239.8821170810  -284.5487837477  -328.8821170810  -400.5487837477  -450.2154504143  -499.3821170810  -557.3821170810  -579.2154504143  -626.3821170810  -685.0487837477  -743.7154504143  -825.5487837477  -887.2154504143  -920.7154504143  -924.3821170810  -947.7154504143  -989.5487837477 -1030.5487837477 -1069.2154504143 -1107.0487837477 -1139.0487837477 -1152.3821170810 -1164.7154504143 -1200.5487837477 -1230.0487837477 -1224.2154504143 -1198.3821170810 -1173.3821170810 -1152.0487837477 -1135.8821170810 -1134.2154504143 -1138.0487837477 -1126.3821170810 -1116.3821170810 -1116.2154504143 -1107.3821170810 -1100.3821170810 -1104.2154504143 -1108.2154504143 -1086.7154504143 -1049.7154504143 -1033.8821170810 -1021.8821170810  -999.7154504143  -978.5487837477  -959.8821170810  -940.2154504143  -937.7154504143  -939.0487837477  -944.3821170810  -943.8821170810  -924.5487837477  -898.0487837477  -880.2154504143  -858.3821170810  -849.3821170810  -838.3821170810  -835.0487837477  -817.2154504143  -784.8821170810  -750.8821170810  -712.3821170810  -662.8821170810  -591.2154504143  -514.3821170810  -423.0487837477  -336.2154504143  -275.2154504143  -245.3821170810  -197.8821170810  -143.7154504143   -86.8821170810   -44.2154504143     4.2845495857    43.1178829190    67.7845495857    73.1178829190    83.1178829190    97.4512162523   104.9512162523   115.1178829190   120.6178829190   130.9512162523   142.2845495857   161.1178829190   170.4512162523   164.9512162523   167.2845495857   164.2845495857   154.4512162523   136.1178829190   111.7845495857   106.7845495857    96.7845495857    81.2845495857    66.6178829190    51.2845495857    33.7845495857    11.1178829190   -11.7154504143   -29.5487837477   -39.8821170810   -43.7154504143   -54.8821170810   -58.8821170810   -59.3821170810   -57.3821170810   -48.8821170810   -41.3821170810   -36.8821170810   -33.7154504143   -25.8821170810   -17.5487837477   -10.8821170810    -0.5487837477    10.1178829190    20.2845495857    29.2845495857    38.9512162523    46.9512162523    56.9512162523    67.9512162523    77.4512162523    83.2845495857    87.9512162523    92.4512162523    99.2845495857   104.2845495857   109.4512162523   114.9512162523   119.6178829190   126.1178829190   135.4512162523   142.6178829190   147.4512162523   152.1178829190   155.4512162523   158.6178829190   161.2845495857   163.6178829190   167.9512162523   174.1178829190   179.1178829190   183.1178829190   184.4512162523   190.1178829190   195.7845495857   201.1178829190   205.4512162523   210.6178829190   216.6178829190   224.7845495857   232.1178829190   238.9512162523   247.7845495857   257.7845495857   266.6178829190   275.7845495857   285.4512162523   294.9512162523   306.4512162523   314.2845495857   323.4512162523   333.4512162523   343.2845495857   353.9512162523   366.9512162523   377.6178829190   385.6178829190   392.9512162523   396.6178829190   401.4512162523   406.4512162523   411.1178829190   412.1178829190   413.4512162523   413.9512162523   413.7845495857   413.1178829190   412.7845495857   413.2845495857   413.4512162523   409.9512162523   406.1178829190   403.1178829190   399.9512162523   401.2845495857   402.4512162523   403.4512162523   404.2845495857   407.6178829190   411.6178829190   416.2845495857   421.9512162523   425.7845495857   427.9512162523   430.2845495857   433.4512162523   435.9512162523   438.2845495857   441.9512162523   446.1178829190   448.4512162523   448.2845495857   447.1178829190   444.4512162523   442.1178829190   440.1178829190   437.2845495857   432.4512162523   427.4512162523   423.2845495857   417.2845495857   410.6178829190   404.4512162523   400.1178829190   396.4512162523   392.4512162523   387.4512162523   382.6178829190   377.7845495857   374.2845495857   370.6178829190   365.7845495857   358.9512162523   354.1178829190   349.7845495857   346.2845495857   342.6178829190   339.1178829190   337.4512162523   337.7845495857   339.2845495857   337.9512162523   337.2845495857   339.2845495857   343.1178829190   345.9512162523   348.1178829190   349.4512162523   351.9512162523   353.6178829190   355.2845495857   355.6178829190   357.2845495857   359.1178829190   360.4512162523   360.1178829190   357.6178829190   355.9512162523   354.6178829190   353.9512162523   353.2845495857   351.9512162523   348.7845495857   346.6178829190   343.7845495857   339.4512162523   334.2845495857   327.9512162523   323.4512162523   317.6178829190   311.7845495857   306.6178829190   303.9512162523   303.6178829190   301.4512162523   297.2845495857   292.6178829190   290.6178829190   288.9512162523   285.1178829190   281.6178829190   279.6178829190   278.4512162523   279.2845495857   278.7845495857   276.2845495857   273.2845495857   268.9512162523   263.6178829190   258.7845495857   256.1178829190   253.7845495857   248.2845495857   240.6178829190   235.1178829190   233.1178829190   230.4512162523   227.9512162523   223.6178829190   220.4512162523   216.6178829190   215.6178829190   215.7845495857   215.9512162523   216.1178829190   201.4230152366   185.5614808875   169.6999465384   156.0050788559   143.3102111735   129.6153434910   114.5871424753   101.2256081262 
   40.9208633094    46.6528110845    52.0514255262    57.6167066347    64.8486544098    74.0806021849    84.1458832934    94.0444977352    97.7111644018    98.7111644018    98.8778310685    99.5444977352    99.5444977352    97.8778310685    95.7111644018    94.0444977352    93.8778310685    92.3778310685    90.3778310685    87.0444977352    82.2111644018    75.8778310685    69.2111644018    62.8778310685    59.0444977352    58.2111644018    58.0444977352    58.0444977352    58.0444977352    59.2111644018    63.2111644018    65.8778310685    66.7111644018    68.2111644018    69.2111644018    73.8778310685    77.7111644018    81.2111644018    85.8778310685    90.8778310685    94.2111644018    96.8778310685   100.5444977352   102.3778310685   103.0444977352   104.3778310685   104.7111644018   103.7111644018   102.0444977352    99.7111644018    98.0444977352    95.3778310685    92.8778310685    90.2111644018    86.0444977352    81.8778310685    79.5444977352    78.2111644018    76.7111644018    74.3778310685    74.3778310685    73.8778310685    72.3778310685    70.7111644018    69.3778310685    69.2111644018    73.0444977352    75.5444977352    77.7111644018    78.2111644018    77.2111644018    76.7111644018    76.0444977352    74.5444977352    71.3778310685    72.3778310685    72.8778310685    72.3778310685    70.8778310685    70.2111644018    70.0444977352    71.5444977352    70.5444977352    70.2111644018    68.8778310685    67.5444977352    67.7111644018    68.2111644018    68.3778310685    67.5444977352    68.8778310685    68.5444977352    67.0444977352    65.3778310685    63.2111644018    64.7111644018    66.0444977352    65.5444977352    63.3778310685    60.2111644018    58.8778310685    61.8778310685    66.5444977352    69.5444977352    72.2111644018    76.0444977352    78.5444977352    79.8778310685    81.0444977352    84.3778310685    89.2111644018    92.5444977352    96.2111644018    98.7111644018   102.0444977352   107.0444977352   110.2111644018   110.8778310685   108.0444977352   105.3778310685   105.2111644018   103.8778310685   101.0444977352   100.5444977352   101.8778310685   101.0444977352    99.5444977352    96.2111644018    91.7111644018    86.7111644018    82.5444977352    77.7111644018    72.0444977352    63.5444977352    54.2111644018    44.2111644018    39.5444977352    39.8778310685    38.7111644018    31.8778310685    30.2111644018    30.2111644018    30.8778310685    30.8778310685    30.5444977352    26.2111644018    30.0444977352    42.2111644018    48.7111644018    40.8778310685    45.7111644018    78.5444977352    98.8778310685   106.8778310685   114.3778310685   136.5444977352   145.5444977352   143.0444977352   163.7111644018   190.7111644018   226.0444977352   260.5444977352   269.2111644018   279.8778310685   309.0444977352   348.5444977352   369.7111644018   332.3778310685   307.7111644018   283.0444977352   277.5444977352   264.8778310685   239.5444977352   214.5444977352   162.5444977352   111.2111644018    46.8778310685   -18.9555022648   -88.1221689315  -170.6221689315  -252.1221689315  -321.7888355982  -382.2888355982  -419.7888355982  -476.4555022648  -533.7888355982  -611.1221689315  -686.2888355982  -748.1221689315  -805.7888355982  -866.4555022648  -919.7888355982  -963.9555022648  -993.1221689315 -1005.4555022648 -1023.1221689315 -1053.6221689315 -1091.4555022648 -1126.9555022648 -1154.1221689315 -1165.2888355982 -1163.4555022648 -1162.4555022648 -1162.4555022648 -1143.7888355982 -1128.1221689315 -1100.2888355982 -1082.6221689315 -1065.4555022648 -1051.9555022648 -1040.2888355982 -1015.7888355982  -992.9555022648  -964.9555022648  -933.1221689315  -893.7888355982  -859.2888355982  -829.6221689315  -791.7888355982  -760.4555022648  -747.7888355982  -729.9555022648  -717.9555022648  -694.6221689315  -667.1221689315  -644.4555022648  -614.7888355982  -590.4555022648  -562.6221689315  -540.1221689315  -528.4555022648  -526.1221689315  -521.6221689315  -527.7888355982  -542.1221689315  -542.4555022648  -528.2888355982  -492.6221689315  -451.4555022648  -427.4555022648  -406.6221689315  -386.2888355982  -365.9555022648  -352.1221689315  -336.7888355982  -307.6221689315  -275.6221689315  -249.9555022648  -217.1221689315  -171.7888355982  -115.1221689315   -69.7888355982   -38.2888355982   -17.2888355982     2.5444977352    29.3778310685    58.5444977352    83.5444977352   104.0444977352   132.8778310685   161.0444977352   178.0444977352   206.5444977352   242.7111644018   264.7111644018   288.7111644018   301.5444977352   313.2111644018   338.2111644018   350.0444977352   351.5444977352   343.3778310685   326.0444977352   311.0444977352   301.2111644018   287.5444977352   274.7111644018   265.2111644018   243.8778310685   216.2111644018   187.8778310685   158.7111644018   132.8778310685   108.8778310685    78.2111644018    52.2111644018    35.8778310685    25.7111644018    20.3778310685    20.2111644018    16.2111644018    13.7111644018     7.7111644018    -2.9555022648   -11.2888355982   -12.4555022648    -6.6221689315    -2.1221689315     6.3778310685    14.8778310685    21.7111644018    29.5444977352    33.8778310685    37.3778310685    38.8778310685    40.5444977352    45.3778310685    50.0444977352    56.7111644018    65.8778310685    74.3778310685    82.8778310685    89.3778310685    94.8778310685    96.0444977352    96.8778310685    97.3778310685    95.5444977352    96.0444977352    98.0444977352   103.0444977352   107.0444977352   109.7111644018   111.0444977352   111.3778310685   108.7111644018   106.0444977352   107.0444977352   111.0444977352   114.5444977352   120.2111644018   124.8778310685   130.7111644018   139.0444977352   143.0444977352   145.5444977352   146.5444977352   148.7111644018   149.7111644018   152.7111644018   157.0444977352   162.5444977352   168.3778310685   171.7111644018   172.7111644018   175.5444977352   179.2111644018   180.5444977352   182.3778310685   183.5444977352   189.5444977352   197.5444977352   204.2111644018   208.5444977352   214.8778310685   221.5444977352   228.0444977352   234.8778310685   241.7111644018   247.5444977352   253.2111644018   257.8778310685   260.7111644018   264.3778310685   267.5444977352   273.8778310685   278.0444977352   278.8778310685   277.5444977352   276.7111644018   275.0444977352   276.5444977352   277.3778310685   277.7111644018   275.0444977352   274.5444977352   277.2111644018   276.8778310685   273.7111644018   272.2111644018   272.2111644018   272.2111644018   271.0444977352   271.5444977352   272.8778310685   274.0444977352   275.7111644018   273.8778310685   271.7111644018   269.5444977352   268.2111644018   264.5444977352   257.2111644018   253.0444977352   252.8778310685   252.5444977352   251.8778310685   251.2111644018   252.0444977352   250.3778310685   251.3778310685   253.2111644018   253.3778310685   250.7111644018   246.2111644018   242.0444977352   241.7111644018   241.2111644018   240.2111644018   236.5444977352   231.3778310685   230.5444977352   229.2111644018   224.7111644018   218.5444977352   214.8778310685   211.2111644018   208.0444977352   204.5444977352   203.2111644018   205.2111644018   205.8778310685   202.2111644018   197.8778310685   194.2111644018   193.5444977352   193.5444977352   188.2111644018   183.0444977352   179.3778310685   177.0444977352   175.3778310685   172.2111644018   168.0444977352   165.8778310685   164.7111644018   163.5444977352   164.8778310685   167.3778310685   169.5444977352   172.8778310685   177.7111644018   182.3778310685   185.5444977352   186.5444977352   186.8778310685   187.0444977352   186.2111644018   185.2111644018   183.2111644018   179.8778310685   176.0444977352   170.8778310685   164.2111644018   157.0444977352   150.3778310685   143.5444977352   137.5444977352   128.2111644018   121.0444977352   116.3778310685   114.2111644018   112.7111644018   109.2111644018   105.3778310685   103.8778310685   101.3778310685    99.3778310685    98.3778310685    98.0444977352    99.3778310685   102.7111644018   105.5444977352    97.8125499600    93.0806021849    88.6819877431    82.9500399680    75.2180921929    66.8194777511    60.4208633094    54.6889155342 
  -22.8398718975   -26.0443021084   -28.2487323192   -30.9531625300   -35.1575927409   -39.3620229517   -42.0664531625   -44.4375500400   -44.9375500400   -44.1042167067   -42.9375500400   -42.9375500400   -42.9375500400   -43.1042167067   -43.7708833734   -42.9375500400   -42.4375500400   -41.4375500400   -41.9375500400   -43.7708833734   -43.2708833734   -42.4375500400   -40.9375500400   -39.4375500400   -39.4375500400   -40.6042167067   -41.9375500400   -41.9375500400   -43.9375500400   -45.7708833734   -47.6042167067   -48.2708833734   -47.9375500400   -47.4375500400   -47.2708833734   -44.7708833734   -41.7708833734   -38.2708833734   -37.7708833734   -37.1042167067   -34.4375500400   -30.2708833734   -25.7708833734   -23.6042167067   -21.2708833734   -19.6042167067   -16.2708833734   -14.2708833734   -13.6042167067   -11.9375500400    -9.1042167067    -5.7708833734    -3.9375500400    -2.4375500400    -1.1042167067    -2.2708833734    -2.6042167067    -3.2708833734    -3.7708833734    -4.2708833734    -5.6042167067    -7.1042167067    -8.7708833734   -10.2708833734   -11.6042167067   -14.2708833734   -16.2708833734   -16.7708833734   -16.7708833734   -17.2708833734   -15.7708833734   -13.9375500400   -12.7708833734   -13.1042167067   -13.9375500400   -14.4375500400   -12.9375500400   -11.1042167067    -9.4375500400    -9.4375500400    -8.1042167067    -5.1042167067    -2.9375500400    -3.4375500400    -5.2708833734    -7.1042167067    -9.6042167067    -9.9375500400    -9.2708833734    -8.4375500400    -6.1042167067    -1.7708833734     1.5624499600     4.8957832933     8.0624499600    10.5624499600    10.2291166266     9.5624499600     9.8957832933     9.5624499600    10.3957832933    11.7291166266    13.3957832933    14.8957832933    12.0624499600    10.3957832933    10.3957832933    10.8957832933    12.0624499600    14.2291166266    13.3957832933    13.2291166266    14.0624499600    13.7291166266    11.5624499600    11.8957832933    12.7291166266    13.5624499600    14.0624499600    12.0624499600    13.3957832933    14.7291166266    13.5624499600    11.0624499600     8.2291166266     3.2291166266     1.0624499600    -0.4375500400    -1.2708833734    -2.7708833734    -5.1042167067    -9.7708833734   -14.9375500400   -19.7708833734   -24.9375500400   -26.2708833734   -26.7708833734   -28.4375500400   -28.4375500400   -29.2708833734   -32.1042167067   -35.6042167067   -39.6042167067   -40.7708833734   -42.7708833734   -41.1042167067   -26.7708833734   -13.9375500400    -3.6042167067    -1.9375500400     8.7291166266    25.7291166266    37.3957832933    47.0624499600    45.5624499600    35.8957832933    27.8957832933    30.3957832933    35.8957832933    55.3957832933    76.8957832933    77.2291166266    74.7291166266    72.7291166266    71.0624499600    86.0624499600    88.2291166266    90.7291166266    97.7291166266    88.8957832933    74.7291166266    79.5624499600   101.2291166266   118.8957832933   109.3957832933    74.8957832933    41.7291166266    25.2291166266   -12.9375500400   -59.9375500400  -108.4375500400  -160.6042167067  -214.6042167067  -282.6042167067  -353.7708833734  -420.9375500400  -489.6042167067  -573.2708833734  -673.2708833734  -773.7708833734  -850.9375500400  -924.7708833734 -1002.2708833734 -1086.4375500400 -1164.1042167067 -1234.2708833734 -1314.7708833734 -1394.2708833734 -1452.1042167067 -1501.7708833734 -1535.7708833734 -1531.1042167067 -1504.9375500400 -1480.9375500400 -1458.7708833734 -1447.4375500400 -1436.6042167067 -1422.1042167067 -1410.4375500400 -1389.1042167067 -1359.9375500400 -1327.9375500400 -1274.7708833734 -1227.6042167067 -1187.2708833734 -1145.7708833734 -1115.4375500400 -1105.6042167067 -1097.6042167067 -1084.4375500400 -1070.9375500400 -1057.4375500400 -1035.1042167067  -998.6042167067  -955.1042167067  -917.4375500400  -893.6042167067  -878.2708833734  -861.9375500400  -841.7708833734  -830.7708833734  -817.7708833734  -801.4375500400  -784.7708833734  -777.2708833734  -772.2708833734  -762.9375500400  -721.1042167067  -674.2708833734  -629.4375500400  -589.7708833734  -536.9375500400  -468.7708833734  -406.7708833734  -343.4375500400  -276.4375500400  -193.4375500400  -128.6042167067   -69.7708833734    -9.2708833734    46.5624499600   118.7291166266   196.7291166266   245.3957832933   286.7291166266   313.5624499600   342.2291166266   360.0624499600   384.0624499600   431.8957832933   469.0624499600   497.3957832933   502.5624499600   525.2291166266   548.8957832933   561.8957832933   590.2291166266   617.7291166266   629.8957832933   637.2291166266   642.8957832933   650.7291166266   655.0624499600   658.0624499600   647.8957832933   627.0624499600   608.0624499600   588.8957832933   570.5624499600   548.7291166266   527.8957832933   515.8957832933   498.7291166266   469.0624499600   443.2291166266   424.3957832933   406.5624499600   389.3957832933   375.7291166266   366.3957832933   361.7291166266   359.3957832933   356.3957832933   353.3957832933   355.3957832933   356.5624499600   357.3957832933   354.7291166266   351.8957832933   351.0624499600   355.0624499600   359.5624499600   357.5624499600   355.3957832933   352.7291166266   348.8957832933   345.5624499600   341.7291166266   336.3957832933   331.8957832933   329.0624499600   324.7291166266   319.8957832933   312.7291166266   305.8957832933   298.0624499600   288.7291166266   280.0624499600   273.7291166266   269.2291166266   267.2291166266   264.7291166266   261.8957832933   259.5624499600   259.3957832933   259.8957832933   261.0624499600   261.0624499600   260.7291166266   264.0624499600   268.0624499600   272.7291166266   275.7291166266   276.8957832933   277.5624499600   278.2291166266   279.3957832933   283.2291166266   287.0624499600   289.2291166266   289.5624499600   290.0624499600   289.5624499600   290.5624499600   291.5624499600   293.2291166266   293.8957832933   293.5624499600   295.8957832933   300.3957832933   303.7291166266   307.2291166266   310.5624499600   310.5624499600   309.8957832933   310.0624499600   312.0624499600   313.5624499600   317.0624499600   320.5624499600   322.5624499600   323.5624499600   326.0624499600   327.8957832933   324.8957832933   321.8957832933   320.8957832933   320.5624499600   319.2291166266   319.2291166266   319.3957832933   319.5624499600   319.7291166266   322.3957832933   323.5624499600   324.3957832933   328.8957832933   332.8957832933   335.8957832933   338.7291166266   342.7291166266   345.8957832933   350.2291166266   352.5624499600   354.3957832933   354.3957832933   353.7291166266   353.0624499600   350.5624499600   346.0624499600   341.0624499600   337.0624499600   332.7291166266   327.8957832933   320.7291166266   313.5624499600   309.0624499600   305.3957832933   300.2291166266   296.0624499600   290.2291166266   285.8957832933   282.0624499600   278.8957832933   276.8957832933   273.5624499600   271.5624499600   269.3957832933   264.0624499600   257.2291166266   253.3957832933   251.8957832933   251.0624499600   248.5624499600   245.3957832933   242.0624499600   238.5624499600   236.2291166266   234.2291166266   231.2291166266   228.3957832933   227.8957832933   227.0624499600   227.5624499600   229.5624499600   232.3957832933   235.3957832933   238.3957832933   240.7291166266   244.2291166266   246.3957832933   248.8957832933   252.2291166266   253.5624499600   254.7291166266   255.2291166266   255.3957832933   254.7291166266   252.5624499600   249.0624499600   244.8957832933   243.0624499600   242.2291166266   241.3957832933   238.0624499600   234.2291166266   232.5624499600   229.8957832933   226.2291166266   223.3957832933   220.7291166266   218.5624499600   216.5624499600   214.5624499600   212.8957832933   210.5624499600   209.2291166266   207.5624499600   205.3957832933   202.0624499600   198.8957832933   193.8957832933   188.8957832933   184.0624499600   180.2291166266   176.3957832933   172.0624499600   169.2291166266   167.3957832933   163.8957832933   159.5624499600   155.3957832933   149.8957832933   137.1002135041   123.6379770483   110.1757405925    98.0468374700    88.7512676808    78.9556978916    69.6601281025    61.3645583133 
   -2.6158781075    -1.5176423416    -1.0860732424    -2.1545041433    -2.7229350441    -3.2913659449    -2.6931301791    -1.0948944133    -0.5948944133    -2.0948944133    -3.5948944133    -5.5948944133    -6.7615610799    -8.2615610799    -9.0948944133    -6.4282277466    -3.4282277466    -3.0948944133    -2.4282277466    -1.4282277466    -1.0948944133     0.0717722534    -0.0948944133    -0.4282277466     2.4051055867     6.7384389201    12.7384389201    18.4051055867    23.0717722534    27.4051055867    31.5717722534    33.4051055867    34.9051055867    35.9051055867    38.0717722534    41.5717722534    44.0717722534    43.5717722534    42.4051055867    40.2384389201    36.5717722534    34.0717722534    30.9051055867    28.9051055867    27.0717722534    25.7384389201    23.4051055867    21.2384389201    18.7384389201    16.2384389201    13.0717722534    10.5717722534    10.9051055867    13.9051055867    16.7384389201    19.4051055867    24.5717722534    26.4051055867    25.7384389201    24.5717722534    22.7384389201    21.2384389201    21.0717722534    20.9051055867    19.9051055867    20.5717722534    21.4051055867    22.7384389201    22.9051055867    21.9051055867    22.5717722534    24.7384389201    24.0717722534    22.9051055867    23.7384389201    24.9051055867    28.4051055867    29.9051055867    29.5717722534    27.7384389201    26.0717722534    23.0717722534    20.0717722534    17.0717722534    13.2384389201    11.0717722534     9.2384389201     6.2384389201     1.9051055867    -0.4282277466    -3.0948944133    -5.2615610799    -8.2615610799   -10.2615610799   -10.7615610799    -9.5948944133    -7.0948944133    -5.5948944133    -6.9282277466    -8.2615610799    -4.9282277466    -2.5948944133    -1.4282277466    -1.7615610799    -0.0948944133     2.4051055867     5.7384389201     6.9051055867     5.5717722534     2.9051055867     0.0717722534    -1.2615610799    -2.9282277466    -3.9282277466    -2.0948944133    -1.5948944133    -4.9282277466    -8.0948944133   -12.0948944133   -14.7615610799   -15.7615610799   -17.4282277466   -20.4282277466   -24.0948944133   -27.2615610799   -25.9282277466   -23.0948944133   -21.5948944133   -20.2615610799   -18.2615610799   -15.7615610799   -12.5948944133   -10.7615610799   -11.4282277466   -10.5948944133    -9.0948944133    -9.0948944133    -7.9282277466    -5.7615610799    -3.7615610799     0.9051055867     6.9051055867    11.9051055867    14.2384389201    20.0717722534    27.9051055867    39.7384389201    44.9051055867    58.7384389201    63.5717722534    62.5717722534    42.9051055867     5.5717722534    -3.4282277466     0.2384389201     4.2384389201     2.5717722534    -7.9282277466    -6.2615610799    21.9051055867    49.2384389201    69.0717722534    82.7384389201   105.4051055867   112.5717722534   132.7384389201   159.2384389201   198.9051055867   220.5717722534   206.9051055867   205.2384389201   218.4051055867   224.0717722534   232.2384389201   216.4051055867   167.0717722534   112.2384389201    56.9051055867    -9.7615610799   -82.0948944133  -140.9282277466  -217.2615610799  -302.5948944133  -375.5948944133  -418.0948944133  -457.9282277466  -524.5948944133  -612.5948944133  -691.5948944133  -760.4282277466  -828.0948944133  -899.4282277466  -969.2615610799 -1038.9282277466 -1105.4282277466 -1171.9282277466 -1238.5948944133 -1277.0948944133 -1289.2615610799 -1294.0948944133 -1296.4282277466 -1287.0948944133 -1272.5948944133 -1254.4282277466 -1234.4282277466 -1221.2615610799 -1198.5948944133 -1164.4282277466 -1133.4282277466 -1098.5948944133 -1051.0948944133 -1002.5948944133  -956.7615610799  -916.5948944133  -891.5948944133  -877.7615610799  -858.7615610799  -847.9282277466  -834.0948944133  -812.7615610799  -788.9282277466  -767.5948944133  -754.4282277466  -745.2615610799  -735.5948944133  -712.9282277466  -684.5948944133  -658.4282277466  -631.4282277466  -607.5948944133  -584.9282277466  -568.9282277466  -562.7615610799  -546.5948944133  -527.0948944133  -525.7615610799  -511.9282277466  -484.4282277466  -442.0948944133  -395.2615610799  -354.4282277466  -335.9282277466  -315.5948944133  -272.9282277466  -223.5948944133  -175.5948944133  -139.7615610799  -101.0948944133   -44.5948944133    -2.2615610799    37.4051055867    96.9051055867   135.4051055867   153.7384389201   175.5717722534   204.7384389201   249.7384389201   302.7384389201   335.4051055867   344.4051055867   347.5717722534   357.5717722534   376.2384389201   391.7384389201   407.2384389201   421.7384389201   426.7384389201   427.4051055867   430.9051055867   442.0717722534   446.2384389201   444.2384389201   433.0717722534   421.9051055867   419.7384389201   424.2384389201   422.5717722534   410.0717722534   394.5717722534   383.5717722534   364.9051055867   351.4051055867   333.5717722534   313.7384389201   296.9051055867   280.9051055867   263.0717722534   246.2384389201   233.4051055867   224.7384389201   216.7384389201   208.2384389201   202.0717722534   198.0717722534   198.5717722534   199.0717722534   197.4051055867   196.5717722534   203.2384389201   210.4051055867   217.7384389201   224.4051055867   230.4051055867   234.4051055867   236.7384389201   239.0717722534   243.2384389201   247.0717722534   247.5717722534   247.0717722534   246.9051055867   246.2384389201   246.5717722534   246.5717722534   244.5717722534   243.0717722534   242.2384389201   241.5717722534   239.9051055867   239.4051055867   240.2384389201   240.4051055867   238.4051055867   234.7384389201   232.9051055867   232.4051055867   232.4051055867   231.4051055867   226.9051055867   221.0717722534   218.2384389201   216.9051055867   215.7384389201   213.4051055867   211.9051055867   213.9051055867   215.4051055867   216.2384389201   217.4051055867   220.0717722534   224.9051055867   230.2384389201   234.4051055867   238.9051055867   245.5717722534   252.4051055867   257.7384389201   263.2384389201   267.0717722534   272.2384389201   278.0717722534   280.2384389201   282.9051055867   285.4051055867   288.2384389201   290.7384389201   291.7384389201   292.9051055867   293.2384389201   293.4051055867   294.5717722534   295.5717722534   295.4051055867   295.9051055867   300.4051055867   304.9051055867   309.9051055867   313.7384389201   315.9051055867   316.5717722534   317.0717722534   319.0717722534   321.5717722534   322.5717722534   324.9051055867   326.5717722534   326.5717722534   328.0717722534   328.7384389201   327.9051055867   324.5717722534   320.0717722534   314.5717722534   310.5717722534   308.2384389201   308.9051055867   309.0717722534   307.2384389201   304.5717722534   301.0717722534   296.5717722534   294.0717722534   292.0717722534   287.0717722534   282.5717722534   279.2384389201   277.0717722534   275.0717722534   271.9051055867   266.9051055867   261.4051055867   255.7384389201   249.9051055867   243.4051055867   236.7384389201   231.7384389201   226.5717722534   220.7384389201   214.9051055867   210.2384389201   207.5717722534   203.7384389201   199.0717722534   195.0717722534   192.5717722534   192.9051055867   192.2384389201   190.4051055867   187.9051055867   186.2384389201   186.0717722534   187.2384389201   190.5717722534   192.2384389201   191.0717722534   192.7384389201   194.0717722534   195.2384389201   195.7384389201   196.5717722534   197.9051055867   197.7384389201   199.0717722534   201.9051055867   205.7384389201   209.4051055867   214.0717722534   217.9051055867   220.2384389201   222.7384389201   228.5717722534   231.5717722534   234.0717722534   236.4051055867   238.5717722534   241.5717722534   243.2384389201   244.7384389201   244.0717722534   241.0717722534   237.9051055867   234.4051055867   227.9051055867   219.9051055867   211.9051055867   205.4051055867   198.5717722534   192.5717722534   187.5717722534   182.5717722534   178.4051055867   172.2384389201   166.2384389201   159.0717722534   153.9051055867   150.9051055867   148.2384389201   146.2384389201   145.0717722534   144.2384389201   144.5717722534   146.0717722534   147.5717722534   138.1402031542   127.5419673884   116.9437316226   106.0121625234    96.0805934242    86.9823576584    79.5507885592    72.1192194600 
    3.2817745803     2.7575273115     1.2332800426    -0.1243005596    -0.9818811617    -1.8394617639    -3.3637090328    -5.3879563016    -5.5546229683    -5.8879563016    -6.2212896350    -6.2212896350    -4.8879563016    -3.7212896350    -3.0546229683    -3.7212896350    -4.2212896350    -2.7212896350     0.4453770317     2.7787103650     3.7787103650     5.4453770317     6.9453770317     9.9453770317    11.1120436984    10.4453770317     9.9453770317    10.6120436984    11.6120436984    11.2787103650    10.2787103650     8.7787103650     9.1120436984    10.2787103650    11.1120436984    12.7787103650    15.1120436984    16.7787103650    20.7787103650    23.9453770317    27.1120436984    30.1120436984    31.6120436984    33.1120436984    33.9453770317    34.7787103650    35.7787103650    37.4453770317    38.6120436984    38.1120436984    35.9453770317    33.4453770317    31.2787103650    27.9453770317    24.6120436984    21.1120436984    18.1120436984    17.1120436984    16.9453770317    15.4453770317    13.2787103650    11.6120436984    11.4453770317    11.7787103650    11.2787103650    11.1120436984    10.9453770317     9.9453770317     8.4453770317     7.9453770317     5.2787103650     1.1120436984    -2.7212896350    -6.0546229683    -9.0546229683   -12.7212896350   -14.5546229683   -16.2212896350   -17.2212896350   -19.2212896350   -22.8879563016   -26.7212896350   -28.5546229683   -27.7212896350   -25.8879563016   -23.2212896350   -21.2212896350   -16.7212896350   -12.2212896350    -9.0546229683    -6.5546229683    -3.3879563016    -0.2212896350     3.6120436984     5.7787103650     7.2787103650     9.2787103650    12.1120436984    14.2787103650    14.4453770317    15.2787103650    14.7787103650    15.7787103650    16.2787103650    17.9453770317    19.4453770317    19.9453770317    20.7787103650    21.2787103650    19.6120436984    19.1120436984    18.2787103650    18.4453770317    18.4453770317    17.4453770317    16.7787103650    14.7787103650    13.9453770317    12.4453770317    11.1120436984     7.2787103650     3.9453770317     1.4453770317    -1.5546229683    -5.2212896350    -8.2212896350    -9.8879563016   -10.3879563016   -10.0546229683   -10.5546229683   -11.8879563016   -12.0546229683   -11.0546229683    -9.8879563016    -8.0546229683    -7.8879563016    -5.8879563016    -1.5546229683     3.4453770317     7.4453770317    10.2787103650    16.4453770317    20.1120436984    24.1120436984    23.1120436984    22.6120436984    25.9453770317    27.1120436984    31.9453770317    38.2787103650    41.6120436984    50.1120436984    56.9453770317    72.1120436984    85.1120436984   103.2787103650   117.4453770317   124.9453770317   141.2787103650   143.1120436984   143.1120436984   143.2787103650   150.1120436984   167.4453770317   157.4453770317   158.6120436984   180.9453770317   199.7787103650   184.9453770317   167.1120436984   154.2787103650   124.6120436984    94.6120436984    70.6120436984    58.1120436984    57.7787103650    40.6120436984     9.7787103650   -29.0546229683   -69.2212896350  -100.5546229683  -151.7212896350  -213.2212896350  -285.2212896350  -326.2212896350  -384.0546229683  -458.3879563016  -522.3879563016  -579.0546229683  -641.8879563016  -727.7212896350  -817.8879563016  -885.3879563016  -939.8879563016  -990.7212896350 -1035.5546229683 -1066.2212896350 -1075.2212896350 -1097.0546229683 -1110.8879563016 -1117.7212896350 -1113.5546229683 -1091.5546229683 -1069.3879563016 -1049.0546229683 -1031.2212896350 -1015.5546229683  -991.2212896350  -962.5546229683  -925.2212896350  -890.0546229683  -866.0546229683  -841.0546229683  -827.7212896350  -803.7212896350  -779.2212896350  -756.8879563016  -734.2212896350  -707.8879563016  -680.2212896350  -652.0546229683  -622.5546229683  -582.3879563016  -540.7212896350  -503.8879563016  -469.3879563016  -445.3879563016  -429.8879563016  -405.3879563016  -384.0546229683  -371.7212896350  -362.5546229683  -346.2212896350  -338.8879563016  -337.8879563016  -316.7212896350  -292.2212896350  -259.5546229683  -228.5546229683  -196.2212896350  -158.8879563016  -129.5546229683   -95.0546229683   -53.7212896350   -20.2212896350     7.9453770317    37.4453770317    72.2787103650   105.1120436984   145.9453770317   182.7787103650   201.1120436984   217.6120436984   235.1120436984   251.6120436984   264.1120436984   269.4453770317   278.2787103650   292.9453770317   315.4453770317   333.4453770317   351.1120436984   369.4453770317   389.9453770317   406.2787103650   422.7787103650   444.2787103650   460.6120436984   473.4453770317   479.6120436984   478.6120436984   475.6120436984   476.9453770317   476.1120436984   472.2787103650   455.2787103650   436.4453770317   420.1120436984   401.2787103650   377.6120436984   349.1120436984   317.1120436984   286.2787103650   263.4453770317   242.6120436984   222.4453770317   203.9453770317   186.6120436984   169.2787103650   154.1120436984   138.1120436984   124.4453770317   116.4453770317   111.4453770317   109.9453770317   110.1120436984   112.4453770317   118.2787103650   120.7787103650   117.4453770317   110.6120436984   106.7787103650   108.4453770317   110.4453770317   108.9453770317   105.9453770317   104.9453770317   106.7787103650   106.2787103650   106.1120436984   105.7787103650   106.7787103650   109.1120436984   109.4453770317   110.6120436984   113.4453770317   118.2787103650   121.2787103650   122.1120436984   122.6120436984   125.4453770317   128.6120436984   129.9453770317   130.6120436984   132.1120436984   132.1120436984   133.2787103650   134.2787103650   131.7787103650   130.7787103650   129.6120436984   128.4453770317   129.1120436984   131.9453770317   134.2787103650   135.7787103650   139.1120436984   143.6120436984   152.6120436984   160.7787103650   168.1120436984   175.1120436984   180.9453770317   186.9453770317   195.1120436984   201.2787103650   206.1120436984   212.2787103650   219.7787103650   226.6120436984   232.2787103650   236.6120436984   237.9453770317   239.6120436984   239.6120436984   242.2787103650   246.4453770317   250.1120436984   253.9453770317   256.1120436984   258.7787103650   263.6120436984   269.9453770317   275.1120436984   279.9453770317   282.4453770317   284.1120436984   286.6120436984   289.6120436984   291.6120436984   292.6120436984   291.2787103650   289.1120436984   288.6120436984   286.7787103650   284.1120436984   279.2787103650   274.4453770317   269.7787103650   265.4453770317   258.4453770317   251.6120436984   247.4453770317   245.7787103650   245.9453770317   245.9453770317   245.1120436984   244.9453770317   244.2787103650   242.2787103650   240.4453770317   237.9453770317   237.7787103650   237.6120436984   235.1120436984   231.4453770317   227.4453770317   226.6120436984   225.2787103650   222.7787103650   218.1120436984   213.2787103650   208.9453770317   206.1120436984   203.2787103650   200.7787103650   199.4453770317   198.6120436984   197.9453770317   194.7787103650   190.2787103650   186.7787103650   185.6120436984   183.9453770317   182.2787103650   179.7787103650   177.2787103650   173.7787103650   170.7787103650   167.2787103650   164.9453770317   162.4453770317   159.2787103650   158.6120436984   156.6120436984   155.4453770317   156.2787103650   157.9453770317   159.4453770317   159.9453770317   158.9453770317   157.2787103650   156.2787103650   157.4453770317   158.4453770317   158.9453770317   158.6120436984   159.1120436984   159.7787103650   158.9453770317   157.4453770317   156.7787103650   156.6120436984   155.9453770317   153.6120436984   150.7787103650   149.4453770317   149.2787103650   149.1120436984   148.1120436984   145.4453770317   141.6120436984   137.4453770317   134.4453770317   132.4453770317   130.7787103650   130.4453770317   129.4453770317   127.7787103650   126.2787103650   124.1120436984   119.7787103650   115.6120436984   111.2787103650   108.1120436984   103.7787103650    99.9453770317    97.4453770317    96.1120436984    93.6120436984    89.6120436984    86.2787103650    82.9453770317    75.4696243006    68.3272049027    60.8514521716    54.8756994404    51.5666133760    47.5908606448    43.4484412470    38.8060218492 
   34.2221331195    38.5245923550    42.8270515905    48.1295108260    52.7653033948    57.0677626303    60.7035551992    64.3393477680    64.3393477680    64.6726811013    66.6726811013    67.5060144347    68.5060144347    68.1726811013    67.3393477680    66.5060144347    66.5060144347    66.5060144347    66.6726811013    64.6726811013    63.6726811013    64.8393477680    66.5060144347    67.1726811013    68.5060144347    70.5060144347    74.3393477680    79.3393477680    82.6726811013    84.1726811013    84.5060144347    84.5060144347    84.0060144347    83.3393477680    83.6726811013    85.6726811013    88.8393477680    91.5060144347    94.3393477680    96.1726811013    98.5060144347   101.5060144347   103.1726811013   101.5060144347    99.1726811013    98.6726811013   100.5060144347   102.8393477680   105.3393477680   107.3393477680   108.1726811013   109.0060144347   107.8393477680   104.8393477680   102.0060144347   100.0060144347    98.0060144347    95.1726811013    92.6726811013    90.5060144347    88.0060144347    86.0060144347    84.6726811013    83.6726811013    82.8393477680    84.1726811013    86.8393477680    90.0060144347    93.1726811013    95.3393477680    98.5060144347   103.1726811013   106.0060144347   108.3393477680   110.0060144347   113.1726811013   117.1726811013   120.8393477680   125.3393477680   131.1726811013   137.6726811013   143.0060144347   146.8393477680   147.6726811013   147.1726811013   148.1726811013   149.1726811013   149.0060144347   150.0060144347   149.6726811013   148.0060144347   145.1726811013   142.8393477680   140.3393477680   137.5060144347   134.6726811013   132.5060144347   129.3393477680   125.5060144347   123.6726811013   123.8393477680   126.0060144347   126.8393477680   127.8393477680   127.5060144347   127.5060144347   129.0060144347   132.0060144347   135.6726811013   138.5060144347   141.0060144347   140.3393477680   139.5060144347   139.8393477680   140.1726811013   139.6726811013   138.8393477680   135.0060144347   131.5060144347   128.0060144347   125.5060144347   125.0060144347   128.5060144347   131.0060144347   127.6726811013   125.5060144347   125.5060144347   132.6726811013   142.6726811013   154.1726811013   158.5060144347   162.5060144347   161.6726811013   159.1726811013   158.8393477680   156.3393477680   153.8393477680   144.3393477680   122.6726811013    97.8393477680    77.8393477680    50.6726811013    16.3393477680     4.8393477680    20.3393477680    48.3393477680    94.3393477680   151.3393477680   190.8393477680   217.0060144347   246.8393477680   292.0060144347   329.6726811013   343.6726811013   372.5060144347   418.6726811013   457.6726811013   499.0060144347   545.6726811013   551.3393477680   541.3393477680   520.3393477680   485.3393477680   433.8393477680   401.3393477680   375.1726811013   359.1726811013   319.0060144347   260.5060144347   232.1726811013   179.3393477680    98.3393477680    20.1726811013   -51.8273188987  -117.8273188987  -188.3273188987  -286.4939855653  -388.3273188987  -475.9939855653  -565.9939855653  -669.8273188987  -762.1606522320  -867.8273188987  -948.9939855653 -1000.4939855653 -1051.9939855653 -1086.4939855653 -1103.6606522320 -1119.4939855653 -1138.4939855653 -1168.1606522320 -1178.9939855653 -1178.6606522320 -1189.1606522320 -1220.3273188987 -1242.6606522320 -1262.4939855653 -1289.3273188987 -1312.3273188987 -1345.8273188987 -1364.4939855653 -1361.8273188987 -1332.3273188987 -1286.1606522320 -1228.3273188987 -1166.6606522320 -1097.8273188987 -1031.4939855653  -969.3273188987  -898.4939855653  -819.8273188987  -742.3273188987  -638.3273188987  -525.4939855653  -416.8273188987  -326.6606522320  -261.4939855653  -197.9939855653  -152.3273188987  -132.4939855653  -114.4939855653   -98.3273188987   -78.1606522320   -46.8273188987    -9.8273188987    23.5060144347    50.0060144347    82.1726811013   104.6726811013   112.1726811013   119.1726811013   148.0060144347   189.3393477680   216.1726811013   239.3393477680   268.3393477680   293.6726811013   316.8393477680   324.1726811013   324.8393477680   323.5060144347   322.8393477680   325.6726811013   348.1726811013   381.6726811013   417.5060144347   441.6726811013   466.5060144347   491.8393477680   495.1726811013   504.1726811013   514.6726811013   520.0060144347   522.8393477680   544.3393477680   554.3393477680   555.0060144347   564.6726811013   574.5060144347   557.1726811013   521.6726811013   494.1726811013   474.3393477680   445.3393477680   410.0060144347   392.8393477680   359.6726811013   326.6726811013   294.5060144347   264.5060144347   220.1726811013   185.5060144347   162.5060144347   135.6726811013   114.3393477680    98.0060144347    88.6726811013    80.1726811013    72.5060144347    65.3393477680    59.8393477680    50.8393477680    47.5060144347    40.5060144347    32.8393477680    26.1726811013    22.1726811013    18.5060144347    14.1726811013    10.5060144347     9.0060144347     8.0060144347     5.8393477680     5.1726811013     5.6726811013     8.1726811013    10.1726811013    15.0060144347    18.8393477680    24.3393477680    32.6726811013    42.5060144347    52.3393477680    57.3393477680    61.8393477680    64.5060144347    66.1726811013    67.5060144347    68.0060144347    66.0060144347    64.1726811013    64.5060144347    64.0060144347    61.3393477680    58.3393477680    58.8393477680    61.1726811013    63.8393477680    65.5060144347    69.8393477680    71.0060144347    73.8393477680    75.5060144347    73.5060144347    70.3393477680    67.3393477680    64.0060144347    59.0060144347    54.5060144347    51.1726811013    50.5060144347    47.8393477680    44.0060144347    37.5060144347    33.1726811013    29.8393477680    29.5060144347    30.3393477680    33.0060144347    36.5060144347    40.6726811013    46.6726811013    53.8393477680    62.5060144347    70.1726811013    77.6726811013    85.1726811013    91.1726811013    94.5060144347    99.3393477680   104.3393477680   108.8393477680   113.0060144347   114.6726811013   114.1726811013   114.3393477680   114.3393477680   116.5060144347   117.0060144347   115.0060144347   112.3393477680   111.1726811013   109.1726811013   108.1726811013   108.5060144347   109.5060144347   110.5060144347   110.5060144347   107.6726811013   104.3393477680   101.6726811013    98.8393477680    98.3393477680    95.5060144347    92.1726811013    87.3393477680    84.3393477680    80.3393477680    74.8393477680    68.1726811013    61.0060144347    53.0060144347    47.6726811013    42.8393477680    40.6726811013    42.0060144347    43.8393477680    46.6726811013    45.0060144347    39.3393477680    33.1726811013    31.0060144347    30.5060144347    30.0060144347    30.0060144347    29.5060144347    28.6726811013    28.6726811013    25.5060144347    23.0060144347    22.0060144347    18.8393477680    15.6726811013    11.5060144347     9.1726811013     8.8393477680    10.1726811013    10.5060144347     8.0060144347     6.6726811013     4.0060144347     2.5060144347     1.8393477680     2.0060144347     3.1726811013     4.0060144347     5.5060144347     8.0060144347    10.1726811013    11.1726811013    11.3393477680    15.3393477680    18.8393477680    19.6726811013    21.0060144347    19.1726811013    19.0060144347    18.3393477680    17.8393477680    15.6726811013    13.5060144347    11.0060144347     6.8393477680     1.8393477680    -5.3273188987   -10.6606522320   -14.1606522320   -18.6606522320   -22.1606522320   -22.9939855653   -23.6606522320   -22.8273188987   -22.6606522320   -24.6606522320   -28.3273188987   -31.4939855653   -34.3273188987   -36.6606522320   -38.9939855653   -42.8273188987   -43.3273188987   -45.4939855653   -48.3273188987   -53.6606522320   -59.9939855653   -67.3273188987   -73.9939855653   -79.6606522320   -85.8273188987   -89.4939855653   -90.6606522320   -91.3273188987   -92.3273188987   -92.1606522320   -91.8273188987   -90.4939855653   -92.1606522320   -91.9939855653   -91.6606522320   -91.8273188987   -92.8273188987   -93.8273188987   -95.1606522320   -88.9631114675   -81.7655707030   -75.0680299385   -69.3704891740   -64.1729484095   -59.6420743117   -56.1112002138   -52.7469927827 
   22.9530290899    21.8552175073    22.9240725914    24.8262610088    26.8951160929    28.2973045103    31.3661595943    33.7683480117    31.2683480117    29.6016813451    28.2683480117    27.2683480117    27.2683480117    30.2683480117    32.9350146784    35.7683480117    40.1016813451    45.2683480117    48.4350146784    51.9350146784    54.9350146784    58.6016813451    59.4350146784    60.6016813451    62.9350146784    63.2683480117    63.4350146784    64.1016813451    65.9350146784    66.6016813451    65.7683480117    63.4350146784    62.9350146784    63.2683480117    60.4350146784    56.2683480117    52.6016813451    49.6016813451    48.2683480117    48.2683480117    48.7683480117    51.6016813451    53.4350146784    56.9350146784    61.7683480117    64.6016813451    67.9350146784    72.7683480117    78.4350146784    82.4350146784    88.4350146784    94.7683480117   101.4350146784   107.2683480117   112.1016813451   115.4350146784   117.2683480117   117.2683480117   119.2683480117   121.2683480117   120.1016813451   118.1016813451   117.2683480117   117.2683480117   115.7683480117   113.6016813451   110.2683480117   108.9350146784   107.6016813451   106.7683480117   105.7683480117   105.4350146784   105.6016813451   105.7683480117   105.4350146784   105.2683480117   106.2683480117   108.1016813451   110.4350146784   113.6016813451   115.6016813451   115.9350146784   118.9350146784   121.1016813451   122.7683480117   123.7683480117   126.1016813451   128.2683480117   130.2683480117   131.7683480117   132.9350146784   132.7683480117   131.2683480117   131.4350146784   131.1016813451   128.2683480117   126.2683480117   126.7683480117   128.1016813451   127.7683480117   126.7683480117   124.7683480117   124.1016813451   122.7683480117   120.6016813451   119.7683480117   119.4350146784   119.2683480117   121.6016813451   124.4350146784   126.2683480117   127.1016813451   128.6016813451   130.6016813451   129.4350146784   127.2683480117   127.2683480117   129.9350146784   131.6016813451   133.9350146784   136.7683480117   137.9350146784   139.4350146784   141.4350146784   140.1016813451   135.9350146784   132.7683480117   133.1016813451   137.6016813451   145.2683480117   153.4350146784   157.2683480117   158.6016813451   160.4350146784   161.2683480117   162.4350146784   168.1016813451   165.6016813451   164.1016813451   163.2683480117   157.2683480117   152.7683480117   155.2683480117   162.1016813451   165.1016813451   165.7683480117   165.4350146784   166.9350146784   156.1016813451   147.1016813451   159.9350146784   179.9350146784   188.9350146784   200.6016813451   218.6016813451   235.4350146784   257.7683480117   291.4350146784   315.6016813451   312.7683480117   299.9350146784   304.7683480117   317.1016813451   315.2683480117   326.4350146784   355.2683480117   353.7683480117   338.1016813451   326.1016813451   328.4350146784   314.4350146784   280.7683480117   241.6016813451   201.6016813451   168.7683480117   146.4350146784   124.6016813451    76.6016813451    18.7683480117   -28.5649853216   -85.8983186549  -161.8983186549  -235.3983186549  -320.3983186549  -400.8983186549  -498.5649853216  -593.2316519883  -673.3983186549  -741.2316519883  -823.7316519883  -903.2316519883  -973.3983186549 -1041.8983186549 -1102.5649853216 -1158.3983186549 -1196.7316519883 -1225.2316519883 -1254.7316519883 -1275.2316519883 -1276.5649853216 -1276.8983186549 -1264.2316519883 -1239.7316519883 -1211.5649853216 -1185.0649853216 -1152.0649853216 -1130.0649853216 -1112.7316519883 -1090.5649853216 -1055.5649853216 -1011.8983186549  -973.8983186549  -928.5649853216  -875.8983186549  -822.3983186549  -769.5649853216  -720.5649853216  -677.0649853216  -637.2316519883  -596.3983186549  -557.2316519883  -518.5649853216  -473.0649853216  -419.2316519883  -361.2316519883  -324.7316519883  -302.2316519883  -282.7316519883  -273.0649853216  -263.8983186549  -245.7316519883  -224.0649853216  -206.3983186549  -193.2316519883  -182.0649853216  -162.3983186549  -141.7316519883  -121.5649853216  -102.0649853216   -86.0649853216   -71.7316519883   -56.2316519883   -32.7316519883    -9.3983186549    10.6016813451    31.4350146784    43.4350146784    57.2683480117    81.1016813451   113.2683480117   146.9350146784   168.9350146784   191.2683480117   212.9350146784   230.2683480117   248.7683480117   273.4350146784   312.2683480117   351.2683480117   389.1016813451   429.2683480117   456.1016813451   481.7683480117   513.2683480117   541.7683480117   565.9350146784   584.4350146784   605.7683480117   633.4350146784   660.4350146784   687.7683480117   701.9350146784   703.9350146784   694.6016813451   680.2683480117   665.6016813451   653.1016813451   640.9350146784   627.2683480117   600.6016813451   566.1016813451   533.9350146784   503.9350146784   475.1016813451   435.9350146784   395.4350146784   351.4350146784   318.1016813451   291.2683480117   267.4350146784   246.6016813451   223.6016813451   205.6016813451   194.2683480117   182.1016813451   169.2683480117   161.9350146784   155.7683480117   152.2683480117   147.2683480117   142.2683480117   136.7683480117   135.2683480117   135.6016813451   137.9350146784   142.1016813451   143.9350146784   147.4350146784   149.1016813451   147.6016813451   142.2683480117   132.4350146784   128.4350146784   123.9350146784   117.7683480117   111.9350146784   106.6016813451   102.7683480117   101.4350146784   100.4350146784    97.9350146784    93.6016813451    90.4350146784    86.2683480117    80.2683480117    75.2683480117    74.2683480117    79.9350146784    81.9350146784    83.7683480117    85.6016813451    88.2683480117    91.1016813451    93.6016813451    92.9350146784    92.6016813451    90.1016813451    89.2683480117    89.7683480117    93.1016813451    95.7683480117    98.4350146784   100.9350146784   104.9350146784   107.4350146784   107.6016813451   107.2683480117   107.2683480117   110.2683480117   112.9350146784   116.6016813451   121.4350146784   126.6016813451   131.4350146784   135.2683480117   136.9350146784   139.7683480117   143.9350146784   149.9350146784   155.4350146784   159.7683480117   164.7683480117   170.2683480117   175.9350146784   179.4350146784   183.2683480117   188.1016813451   190.9350146784   195.2683480117   200.4350146784   202.9350146784   203.2683480117   205.7683480117   205.2683480117   204.7683480117   201.4350146784   201.1016813451   202.2683480117   204.6016813451   205.2683480117   206.7683480117   207.9350146784   207.6016813451   206.9350146784   205.2683480117   201.2683480117   199.1016813451   200.4350146784   199.9350146784   199.2683480117   195.2683480117   191.1016813451   185.6016813451   180.6016813451   173.7683480117   167.7683480117   157.9350146784   149.7683480117   141.9350146784   135.7683480117   130.4350146784   124.2683480117   117.7683480117   112.4350146784   107.7683480117   103.1016813451    99.1016813451    97.6016813451    98.7683480117    98.7683480117    97.9350146784    96.2683480117    97.2683480117    97.2683480117    98.4350146784   100.2683480117    99.2683480117    98.2683480117    95.6016813451    90.1016813451    84.4350146784    80.1016813451    76.7683480117    75.1016813451    73.2683480117    70.6016813451    68.2683480117    66.6016813451    66.6016813451    67.7683480117    65.9350146784    62.4350146784    60.4350146784    61.7683480117    66.6016813451    71.7683480117    76.1016813451    81.4350146784    87.6016813451    92.4350146784    94.2683480117    96.9350146784   101.4350146784   105.7683480117   108.4350146784   109.2683480117   110.7683480117   113.1016813451   116.1016813451   116.7683480117   116.9350146784   118.4350146784   119.4350146784   119.4350146784   117.1016813451   113.7683480117   109.2683480117   105.4350146784    99.9350146784    93.7683480117    85.6016813451    78.4350146784    73.6016813451    69.1016813451    62.6016813451    56.4350146784    49.4350146784    42.6016813451    36.6016813451    29.7683480117    23.2683480117    15.6016813451     9.9350146784     5.5328262610     2.1306378436    -0.1048839071    -0.6737389912    -1.5759274086    -3.4781158260    -5.8803042434    -6.4491593275 
   15.6897888265    17.9516172146    20.2134456028    23.1419406576    27.4037690457    32.4989307672    38.0940924886    43.8559208768    47.1892542101    49.1892542101    50.5225875434    52.3559208768    56.1892542101    58.0225875434    58.8559208768    59.3559208768    59.3559208768    61.3559208768    63.8559208768    64.6892542101    63.3559208768    60.1892542101    56.0225875434    50.3559208768    45.6892542101    42.5225875434    38.6892542101    35.1892542101    32.0225875434    31.1892542101    30.6892542101    29.6892542101    29.1892542101    28.6892542101    27.8559208768    26.8559208768    25.3559208768    25.3559208768    26.3559208768    29.5225875434    30.8559208768    30.3559208768    30.8559208768    31.1892542101    32.8559208768    31.0225875434    29.8559208768    29.0225875434    28.6892542101    28.0225875434    26.3559208768    25.8559208768    27.5225875434    28.3559208768    28.1892542101    29.0225875434    29.6892542101    30.3559208768    30.6892542101    31.5225875434    30.8559208768    32.1892542101    31.0225875434    29.3559208768    28.0225875434    25.1892542101    23.1892542101    22.0225875434    21.3559208768    19.8559208768    17.5225875434    11.6892542101     7.5225875434     5.6892542101     5.6892542101     5.5225875434     5.3559208768     3.6892542101     2.8559208768     3.1892542101     2.0225875434     1.5225875434     1.1892542101     0.8559208768     0.6892542101     0.0225875434    -1.9774124566    -3.6440791232    -4.6440791232    -6.8107457899   -10.3107457899   -13.6440791232   -16.3107457899   -16.6440791232   -16.1440791232   -18.1440791232   -19.3107457899   -20.3107457899   -19.3107457899   -19.4774124566   -21.8107457899   -23.3107457899   -21.6440791232   -16.4774124566    -9.8107457899    -3.1440791232     1.8559208768     6.0225875434     9.0225875434    11.3559208768    12.8559208768    16.1892542101    20.3559208768    24.3559208768    26.0225875434    26.8559208768    29.0225875434    32.0225875434    35.6892542101    38.1892542101    38.5225875434    37.1892542101    36.3559208768    36.5225875434    37.1892542101    37.3559208768    37.3559208768    37.0225875434    34.6892542101    32.3559208768    29.6892542101    28.6892542101    27.5225875434    25.3559208768    23.1892542101    20.1892542101    16.6892542101    20.0225875434    25.8559208768    26.5225875434    29.6892542101    31.6892542101    39.1892542101    49.0225875434    52.5225875434    51.6892542101    50.3559208768    49.0225875434    52.5225875434    53.6892542101    58.6892542101    61.0225875434    74.3559208768    93.6892542101   116.6892542101   128.5225875434   125.0225875434   148.5225875434   166.0225875434   176.1892542101   173.8559208768   199.0225875434   232.8559208768   255.8559208768   265.3559208768   281.1892542101   280.6892542101   288.0225875434   295.1892542101   286.0225875434   266.8559208768   260.5225875434   259.5225875434   233.0225875434   193.0225875434   165.0225875434   153.5225875434    88.8559208768    16.8559208768   -33.1440791232   -84.3107457899  -170.1440791232  -246.6440791232  -302.4774124566  -379.3107457899  -473.9774124566  -563.8107457899  -641.4774124566  -715.1440791232  -795.3107457899  -859.1440791232  -937.4774124566 -1013.9774124566 -1063.3107457899 -1101.8107457899 -1144.4774124566 -1181.4774124566 -1182.3107457899 -1178.3107457899 -1201.3107457899 -1214.4774124566 -1206.4774124566 -1188.3107457899 -1172.8107457899 -1165.4774124566 -1151.8107457899 -1141.8107457899 -1124.9774124566 -1098.3107457899 -1062.6440791232 -1037.8107457899 -1020.9774124566  -997.3107457899  -977.4774124566  -955.1440791232  -932.3107457899  -908.4774124566  -877.4774124566  -845.9774124566  -818.9774124566  -779.1440791232  -741.1440791232  -694.6440791232  -638.3107457899  -585.4774124566  -542.4774124566  -509.9774124566  -486.8107457899  -462.9774124566  -427.8107457899  -395.6440791232  -360.6440791232  -320.4774124566  -292.4774124566  -276.3107457899  -260.6440791232  -240.1440791232  -206.8107457899  -175.3107457899  -150.6440791232  -126.3107457899   -98.4774124566   -64.1440791232   -19.1440791232    19.8559208768    44.1892542101    69.3559208768    95.0225875434   112.8559208768   135.3559208768   156.6892542101   183.0225875434   211.8559208768   234.5225875434   254.6892542101   272.6892542101   289.0225875434   315.0225875434   352.5225875434   381.6892542101   411.6892542101   442.6892542101   471.5225875434   501.5225875434   535.8559208768   573.8559208768   613.8559208768   655.8559208768   682.5225875434   703.5225875434   719.6892542101   730.5225875434   732.3559208768   721.8559208768   696.6892542101   675.0225875434   654.3559208768   632.6892542101   610.0225875434   580.6892542101   544.3559208768   503.1892542101   461.3559208768   412.0225875434   369.6892542101   327.0225875434   286.5225875434   251.6892542101   223.1892542101   199.5225875434   182.8559208768   169.8559208768   156.6892542101   146.0225875434   133.1892542101   120.5225875434   112.8559208768   108.5225875434   107.5225875434   105.5225875434   103.0225875434   101.0225875434    97.8559208768    94.5225875434    90.6892542101    84.6892542101    77.3559208768    69.5225875434    63.0225875434    56.1892542101    51.3559208768    49.6892542101    49.1892542101    50.3559208768    50.1892542101    49.1892542101    48.5225875434    48.5225875434    49.5225875434    51.5225875434    53.3559208768    55.1892542101    58.1892542101    61.3559208768    66.5225875434    73.1892542101    81.5225875434    89.0225875434    95.3559208768   100.5225875434   103.3559208768   108.0225875434   115.5225875434   122.6892542101   131.5225875434   138.5225875434   144.8559208768   151.8559208768   158.8559208768   166.5225875434   170.3559208768   173.1892542101   175.5225875434   179.5225875434   183.5225875434   188.5225875434   194.1892542101   199.1892542101   202.6892542101   208.1892542101   212.8559208768   216.8559208768   220.3559208768   222.8559208768   225.6892542101   228.5225875434   233.5225875434   238.0225875434   241.8559208768   246.1892542101   249.6892542101   248.1892542101   248.0225875434   250.5225875434   252.3559208768   250.1892542101   247.8559208768   247.0225875434   247.8559208768   249.8559208768   250.0225875434   248.1892542101   244.0225875434   240.3559208768   236.0225875434   230.3559208768   224.8559208768   224.6892542101   225.0225875434   223.3559208768   221.3559208768   219.6892542101   217.1892542101   214.1892542101   211.0225875434   207.6892542101   205.0225875434   204.5225875434   207.8559208768   211.3559208768   213.1892542101   213.8559208768   215.3559208768   217.1892542101   219.1892542101   218.8559208768   218.0225875434   218.1892542101   218.6892542101   219.0225875434   219.3559208768   219.1892542101   221.0225875434   220.8559208768   217.0225875434   210.8559208768   207.1892542101   205.8559208768   205.8559208768   205.1892542101   203.6892542101   203.1892542101   202.3559208768   203.0225875434   203.3559208768   203.5225875434   203.1892542101   202.0225875434   199.8559208768   200.3559208768   200.8559208768   202.8559208768   205.0225875434   205.8559208768   205.1892542101   201.8559208768   197.3559208768   193.8559208768   192.5225875434   190.6892542101   187.8559208768   184.8559208768   183.3559208768   183.3559208768   183.8559208768   183.1892542101   183.1892542101   183.3559208768   183.0225875434   182.0225875434   179.6892542101   178.0225875434   177.1892542101   175.8559208768   173.3559208768   170.1892542101   167.5225875434   167.1892542101   168.3559208768   169.3559208768   168.6892542101   167.0225875434   166.3559208768   166.0225875434   166.0225875434   163.6892542101   162.0225875434   161.0225875434   161.0225875434   162.0225875434   162.5225875434   162.5225875434   162.3559208768   161.5225875434   159.0225875434   154.1892542101   147.8559208768   141.3559208768   136.0225875434   131.5225875434   125.6892542101   121.6892542101   117.8559208768   109.5940924886   100.3322641005    90.5704357124    80.6419406576    71.7134456028    63.6182838813    54.3564554932    44.4279604384 
    5.1498800959     5.4443112177     5.7387423395     5.5331734612     3.8276045830     2.1220357048     1.4164668265    -0.9557687184    -1.9557687184    -3.6224353850    -6.1224353850    -8.9557687184   -12.1224353850   -16.2891020517   -18.9557687184   -20.7891020517   -22.4557687184   -23.6224353850   -24.6224353850   -24.9557687184   -23.7891020517   -22.4557687184   -21.9557687184   -19.1224353850   -18.1224353850   -16.1224353850   -12.6224353850    -9.7891020517    -8.2891020517    -6.2891020517    -4.7891020517    -2.4557687184     1.8775646150     3.7108979483     4.0442312816     2.8775646150     1.2108979483     0.0442312816    -1.4557687184    -4.6224353850    -6.2891020517    -6.2891020517    -6.4557687184    -6.6224353850    -7.6224353850   -10.7891020517   -14.6224353850   -17.4557687184   -20.9557687184   -22.9557687184   -24.4557687184   -23.9557687184   -23.4557687184   -23.6224353850   -24.6224353850   -24.7891020517   -24.2891020517   -24.9557687184   -26.7891020517   -30.4557687184   -30.7891020517   -29.1224353850   -27.1224353850   -26.6224353850   -25.4557687184   -24.4557687184   -23.1224353850   -22.6224353850   -21.4557687184   -19.9557687184   -19.1224353850   -18.7891020517   -17.7891020517   -17.1224353850   -17.4557687184   -16.1224353850   -15.6224353850   -13.9557687184   -12.1224353850   -11.7891020517   -14.1224353850   -16.4557687184   -18.1224353850   -18.6224353850   -17.7891020517   -16.1224353850   -13.7891020517   -12.7891020517   -14.4557687184   -17.1224353850   -18.2891020517   -17.6224353850   -17.9557687184   -18.9557687184   -21.4557687184   -22.2891020517   -21.2891020517   -20.2891020517   -21.1224353850   -23.7891020517   -28.1224353850   -33.4557687184   -36.7891020517   -38.6224353850   -38.7891020517   -37.1224353850   -35.1224353850   -34.2891020517   -32.6224353850   -32.1224353850   -30.9557687184   -29.6224353850   -28.1224353850   -27.7891020517   -25.9557687184   -21.9557687184   -16.6224353850   -11.1224353850    -6.1224353850    -1.1224353850     2.8775646150     6.8775646150    10.2108979483    12.3775646150    11.7108979483    10.0442312816     9.8775646150     9.3775646150     8.5442312816     7.7108979483     9.3775646150    10.7108979483    11.0442312816     8.2108979483     4.5442312816     6.7108979483    12.5442312816    18.8775646150    17.2108979483    15.5442312816    24.2108979483    33.7108979483    46.5442312816    61.0442312816    61.5442312816    54.0442312816    44.5442312816    37.0442312816    40.5442312816    50.0442312816    53.8775646150    60.2108979483    68.5442312816    76.8775646150    87.5442312816   105.7108979483   108.3775646150    98.0442312816    97.0442312816   108.8775646150   121.0442312816   131.7108979483   148.8775646150   171.7108979483   184.0442312816   177.0442312816   175.7108979483   175.8775646150   175.7108979483   158.8775646150   137.2108979483   103.3775646150    67.7108979483    42.3775646150     0.7108979483   -65.4557687184  -127.2891020517  -175.9557687184  -234.6224353850  -313.9557687184  -399.7891020517  -472.2891020517  -549.7891020517  -647.9557687184  -750.4557687184  -845.2891020517  -930.9557687184  -989.7891020517 -1042.6224353850 -1093.9557687184 -1149.7891020517 -1204.7891020517 -1245.2891020517 -1276.1224353850 -1302.7891020517 -1320.2891020517 -1345.1224353850 -1370.7891020517 -1387.4557687184 -1415.6224353850 -1428.9557687184 -1394.7891020517 -1352.6224353850 -1329.4557687184 -1290.7891020517 -1243.2891020517 -1191.2891020517 -1126.1224353850 -1066.6224353850 -1018.9557687184  -970.7891020517  -923.4557687184  -860.1224353850  -793.1224353850  -728.9557687184  -649.4557687184  -583.4557687184  -550.7891020517  -520.2891020517  -491.1224353850  -474.2891020517  -467.6224353850  -468.4557687184  -476.9557687184  -473.6224353850  -459.2891020517  -458.4557687184  -456.2891020517  -440.6224353850  -414.4557687184  -388.6224353850  -352.2891020517  -315.6224353850  -288.6224353850  -264.1224353850  -221.2891020517  -172.9557687184  -116.6224353850   -54.2891020517    13.3775646150    61.7108979483    98.7108979483   148.7108979483   198.3775646150   235.3775646150   260.5442312816   298.0442312816   331.2108979483   357.5442312816   394.0442312816   434.5442312816   451.0442312816   463.8775646150   475.7108979483   488.8775646150   491.8775646150   517.3775646150   541.0442312816   555.7108979483   583.5442312816   618.0442312816   657.8775646150   692.8775646150   720.5442312816   747.0442312816   772.2108979483   786.5442312816   798.0442312816   817.3775646150   813.7108979483   799.0442312816   800.3775646150   786.8775646150   780.3775646150   776.3775646150   754.8775646150   722.5442312816   688.3775646150   641.5442312816   594.7108979483   548.8775646150   502.0442312816   460.0442312816   423.2108979483   374.7108979483   348.5442312816   334.5442312816   308.0442312816   279.5442312816   242.7108979483   217.3775646150   199.0442312816   179.8775646150   156.2108979483   134.7108979483   118.8775646150   110.5442312816    97.5442312816    81.5442312816    67.8775646150    55.3775646150    41.0442312816    28.2108979483    25.8775646150    24.8775646150    26.7108979483    22.7108979483    20.2108979483    15.8775646150    13.5442312816    12.7108979483    12.5442312816     9.7108979483     7.2108979483     7.5442312816     8.8775646150    13.7108979483    18.5442312816    23.0442312816    20.3775646150    18.2108979483    19.5442312816    21.0442312816    21.8775646150    25.0442312816    27.2108979483    30.2108979483    38.2108979483    45.5442312816    49.7108979483    54.8775646150    60.0442312816    64.2108979483    69.2108979483    74.3775646150    81.3775646150    88.5442312816    93.5442312816    98.8775646150   102.7108979483   106.0442312816   110.0442312816   115.7108979483   119.8775646150   125.7108979483   133.3775646150   139.8775646150   144.7108979483   149.8775646150   152.0442312816   154.2108979483   157.2108979483   160.5442312816   163.7108979483   166.8775646150   170.3775646150   176.0442312816   181.3775646150   186.3775646150   189.8775646150   193.0442312816   197.2108979483   201.8775646150   207.3775646150   211.2108979483   217.7108979483   223.7108979483   226.2108979483   229.7108979483   233.5442312816   237.0442312816   239.5442312816   240.5442312816   242.2108979483   241.5442312816   239.7108979483   238.7108979483   239.8775646150   240.3775646150   240.3775646150   239.3775646150   235.8775646150   231.7108979483   229.5442312816   224.8775646150   219.2108979483   214.0442312816   209.8775646150   206.8775646150   204.5442312816   202.7108979483   201.5442312816   200.2108979483   196.2108979483   191.3775646150   186.2108979483   183.3775646150   183.2108979483   184.2108979483   183.2108979483   182.5442312816   181.7108979483   181.5442312816   181.7108979483   178.7108979483   174.5442312816   171.7108979483   172.7108979483   173.2108979483   171.8775646150   168.8775646150   165.0442312816   161.7108979483   157.3775646150   152.5442312816   147.7108979483   145.7108979483   144.3775646150   141.3775646150   136.7108979483   134.3775646150   132.8775646150   130.8775646150   125.8775646150   118.7108979483   115.7108979483   117.0442312816   121.0442312816   122.7108979483   122.8775646150   124.8775646150   129.8775646150   134.3775646150   140.2108979483   145.2108979483   149.7108979483   154.2108979483   158.3775646150   162.3775646150   164.7108979483   168.7108979483   170.0442312816   168.7108979483   166.7108979483   165.3775646150   164.0442312816   160.8775646150   156.8775646150   151.8775646150   144.8775646150   139.2108979483   137.0442312816   135.5442312816   134.5442312816   132.7108979483   131.2108979483   128.5442312816   126.7108979483   125.2108979483   122.8775646150   120.8775646150   119.3775646150   118.8775646150   116.2108979483   112.0442312816   109.2108979483   106.7108979483   102.5442312816    97.8775646150    93.7108979483    89.3775646150    86.8775646150    85.0442312816    78.2498001599    72.1220357048    65.8276045830    59.3665067946    53.2387423395    46.4443112177    41.8165467626    38.1887823075 
   -7.2847611422    -8.4089938618    -9.3665599146    -8.9907926341    -6.9483586869    -4.9059247398    -5.8634907926    -6.3210568455    -5.9877235121    -6.4877235121    -5.8210568455    -3.6543901788    -2.6543901788    -2.8210568455    -0.4877235121    -0.1543901788    -0.1543901788     1.0122764879     4.3456098212     7.0122764879     8.5122764879    10.3456098212    14.5122764879    17.1789431545    20.8456098212    25.0122764879    27.3456098212    26.0122764879    26.3456098212    30.5122764879    34.0122764879    36.8456098212    38.8456098212    39.0122764879    36.6789431545    33.3456098212    30.6789431545    26.5122764879    24.0122764879    23.8456098212    21.6789431545    17.8456098212    15.0122764879    14.5122764879    12.8456098212     9.0122764879     3.1789431545    -1.3210568455    -3.6543901788    -3.4877235121    -1.6543901788     0.3456098212     1.0122764879     2.8456098212     3.5122764879     2.0122764879     1.6789431545     4.3456098212     7.6789431545    11.6789431545    15.1789431545    16.3456098212    17.6789431545    19.0122764879    20.5122764879    20.8456098212    18.6789431545    18.0122764879    18.6789431545    19.8456098212    19.6789431545    19.6789431545    18.6789431545    17.8456098212    19.8456098212    20.3456098212    19.5122764879    17.1789431545    16.3456098212    16.1789431545    16.0122764879    14.5122764879    14.0122764879    12.5122764879    11.0122764879     7.3456098212     4.8456098212     2.1789431545     1.1789431545    -0.8210568455    -5.6543901788    -8.9877235121   -10.1543901788    -7.6543901788    -6.4877235121    -7.9877235121   -11.8210568455   -14.1543901788   -16.3210568455   -16.8210568455   -18.3210568455   -18.6543901788   -20.4877235121   -19.6543901788   -17.1543901788   -16.9877235121   -18.4877235121   -20.8210568455   -21.8210568455   -23.8210568455   -23.9877235121   -22.3210568455   -20.4877235121   -16.4877235121   -14.3210568455   -16.9877235121   -18.9877235121   -17.9877235121   -16.3210568455   -15.4877235121   -14.9877235121   -11.8210568455    -5.6543901788     1.6789431545     6.0122764879     8.5122764879     9.5122764879    12.6789431545    18.0122764879    19.5122764879    21.3456098212    24.0122764879    26.8456098212    30.0122764879    40.3456098212    46.8456098212    49.6789431545    52.8456098212    51.8456098212    55.5122764879    62.3456098212    69.1789431545    67.8456098212    63.5122764879    59.1789431545    60.5122764879    60.8456098212    58.1789431545    60.6789431545    58.8456098212    48.0122764879    42.1789431545    48.1789431545    52.0122764879    61.3456098212    65.3456098212    77.3456098212    92.1789431545   117.0122764879   144.6789431545   161.8456098212   159.8456098212   153.6789431545   173.1789431545   194.0122764879   206.0122764879   222.8456098212   242.8456098212   260.8456098212   292.1789431545   312.1789431545   315.3456098212   285.8456098212   268.5122764879   248.5122764879   220.0122764879   199.6789431545   182.0122764879   164.1789431545   114.6789431545    58.8456098212    13.1789431545   -56.3210568455  -122.9877235121  -206.9877235121  -316.9877235121  -424.3210568455  -508.1543901788  -574.9877235121  -659.9877235121  -747.9877235121  -836.9877235121  -924.9877235121  -995.1543901788 -1057.4877235121 -1116.4877235121 -1178.3210568455 -1234.3210568455 -1257.1543901788 -1280.6543901788 -1291.9877235121 -1291.1543901788 -1277.8210568455 -1263.9877235121 -1247.9877235121 -1228.4877235121 -1205.3210568455 -1179.8210568455 -1153.9877235121 -1129.3210568455 -1098.3210568455 -1055.1543901788 -1007.6543901788  -959.4877235121  -917.3210568455  -878.8210568455  -842.4877235121  -804.3210568455  -776.8210568455  -759.8210568455  -735.9877235121  -704.4877235121  -668.9877235121  -635.8210568455  -604.9877235121  -577.6543901788  -557.3210568455  -535.6543901788  -505.4877235121  -479.8210568455  -459.6543901788  -451.9877235121  -445.9877235121  -433.4877235121  -408.3210568455  -365.9877235121  -321.3210568455  -283.4877235121  -243.9877235121  -196.3210568455  -150.1543901788  -104.8210568455   -55.9877235121    -8.8210568455    28.8456098212    63.8456098212    98.8456098212   144.3456098212   194.5122764879   240.1789431545   277.5122764879   301.0122764879   319.8456098212   336.6789431545   349.3456098212   364.6789431545   385.1789431545   415.6789431545   444.0122764879   473.5122764879   499.1789431545   528.8456098212   559.0122764879   587.1789431545   616.1789431545   635.8456098212   652.6789431545   674.0122764879   691.3456098212   709.3456098212   717.1789431545   721.3456098212   723.3456098212   713.3456098212   701.8456098212   683.8456098212   667.0122764879   645.0122764879   613.6789431545   578.5122764879   538.5122764879   499.1789431545   460.6789431545   417.5122764879   376.1789431545   337.6789431545   305.3456098212   271.3456098212   240.8456098212   215.8456098212   187.6789431545   157.0122764879   125.1789431545    96.3456098212    78.8456098212    64.8456098212    52.5122764879    44.6789431545    39.0122764879    34.5122764879    29.8456098212    22.1789431545    18.6789431545    19.0122764879    19.1789431545    18.8456098212    22.1789431545    26.0122764879    30.1789431545    33.3456098212    34.1789431545    34.8456098212    36.5122764879    42.6789431545    49.6789431545    54.8456098212    61.5122764879    68.0122764879    74.0122764879    79.8456098212    83.8456098212    83.3456098212    82.8456098212    85.5122764879    89.3456098212    93.1789431545    98.3456098212   103.6789431545   107.0122764879   108.3456098212   107.0122764879   106.3456098212   105.6789431545   109.8456098212   114.6789431545   116.5122764879   117.0122764879   119.3456098212   122.0122764879   127.1789431545   131.8456098212   135.8456098212   140.1789431545   146.1789431545   152.1789431545   158.8456098212   165.1789431545   172.1789431545   180.8456098212   187.6789431545   193.1789431545   200.5122764879   208.0122764879   215.3456098212   223.0122764879   228.8456098212   235.6789431545   243.3456098212   250.6789431545   257.6789431545   265.3456098212   271.6789431545   280.1789431545   286.8456098212   291.6789431545   295.6789431545   300.3456098212   304.6789431545   311.1789431545   318.1789431545   323.0122764879   326.0122764879   328.3456098212   330.1789431545   331.3456098212   330.3456098212   326.8456098212   323.1789431545   319.0122764879   316.6789431545   312.3456098212   307.6789431545   301.8456098212   296.3456098212   290.0122764879   283.8456098212   275.5122764879   268.3456098212   262.5122764879   258.6789431545   253.1789431545   247.5122764879   242.1789431545   236.3456098212   231.3456098212   227.1789431545   225.1789431545   222.5122764879   220.3456098212   216.3456098212   213.6789431545   211.8456098212   213.1789431545   214.0122764879   214.6789431545   213.1789431545   210.3456098212   207.0122764879   203.5122764879   200.8456098212   195.8456098212   188.1789431545   180.0122764879   172.5122764879   166.6789431545   163.5122764879   157.8456098212   150.8456098212   144.8456098212   139.8456098212   133.8456098212   127.8456098212   124.8456098212   124.3456098212   127.0122764879   130.6789431545   135.3456098212   142.8456098212   150.1789431545   158.0122764879   164.0122764879   168.3456098212   172.6789431545   177.5122764879   181.3456098212   184.6789431545   187.6789431545   191.1789431545   194.1789431545   196.6789431545   197.5122764879   196.6789431545   197.3456098212   196.8456098212   196.8456098212   196.3456098212   195.6789431545   193.3456098212   192.0122764879   190.3456098212   188.6789431545   186.8456098212   183.6789431545   181.8456098212   180.3456098212   178.1789431545   173.3456098212   169.1789431545   164.5122764879   160.0122764879   157.3456098212   153.3456098212   147.3456098212   142.6789431545   137.0122764879   130.5122764879   123.6789431545   116.0122764879   110.5122764879   103.8456098212    97.1789431545    91.5122764879    87.1789431545    80.3031758740    72.5940752602    63.8849746464    53.1758740326    44.1334400854    38.0910061382    32.8819055244    27.8394715773 
   -9.1378436082   -10.1346410462   -11.7981051508   -14.4615692554   -16.9583666933   -18.9551641313   -21.9519615692   -25.1154256739   -27.2820923405   -27.6154256739   -27.7820923405   -29.7820923405   -33.9487590072   -36.1154256739   -37.2820923405   -40.1154256739   -41.1154256739   -42.1154256739   -40.6154256739   -36.2820923405   -30.4487590072   -27.9487590072   -26.6154256739   -23.7820923405   -20.1154256739   -17.2820923405   -12.2820923405    -5.9487590072    -2.7820923405    -3.6154256739    -8.2820923405   -11.4487590072   -12.9487590072   -13.2820923405   -15.6154256739   -19.2820923405   -24.1154256739   -27.1154256739   -27.7820923405   -28.6154256739   -30.2820923405   -32.9487590072   -33.2820923405   -34.2820923405   -33.7820923405   -30.7820923405   -26.2820923405   -20.7820923405   -16.2820923405   -13.4487590072   -11.4487590072   -10.4487590072   -11.1154256739    -9.9487590072    -5.4487590072    -3.2820923405    -3.7820923405    -4.1154256739    -5.2820923405    -5.6154256739    -5.2820923405    -6.6154256739    -5.9487590072    -6.4487590072    -8.7820923405    -9.1154256739    -7.9487590072    -6.9487590072    -3.2820923405     1.2179076595     1.0512409928     2.3845743261     7.5512409928    14.2179076595    18.3845743261    19.8845743261    20.2179076595    23.8845743261    26.8845743261    30.7179076595    35.7179076595    37.3845743261    40.3845743261    44.0512409928    45.8845743261    41.8845743261    39.3845743261    37.7179076595    33.8845743261    27.8845743261    23.0512409928    19.5512409928    16.3845743261    13.2179076595    11.7179076595     8.5512409928     6.8845743261     9.2179076595     7.7179076595     4.2179076595     1.3845743261     2.2179076595     2.7179076595     4.2179076595     4.8845743261     6.8845743261     9.5512409928    10.5512409928    13.8845743261    15.5512409928    16.2179076595    17.2179076595    15.3845743261    11.3845743261    10.3845743261    11.0512409928    11.8845743261    11.7179076595    11.8845743261     7.7179076595     4.8845743261     1.7179076595    -0.9487590072     1.3845743261     1.7179076595     1.0512409928    -4.6154256739   -10.1154256739   -13.2820923405   -16.4487590072   -22.1154256739   -23.2820923405   -21.6154256739   -21.1154256739   -21.7820923405   -22.6154256739   -23.9487590072   -25.1154256739   -23.6154256739   -24.2820923405   -25.6154256739   -26.1154256739   -22.1154256739   -17.1154256739   -11.4487590072    -7.6154256739    -1.6154256739     0.2179076595    -3.9487590072    -7.7820923405   -11.4487590072    -8.1154256739    -1.6154256739     4.7179076595     2.8845743261     7.5512409928     6.2179076595     2.3845743261     6.7179076595    15.3845743261    19.3845743261    33.7179076595    49.5512409928    61.7179076595    78.3845743261    67.7179076595    61.3845743261    61.7179076595    63.5512409928    69.7179076595    72.0512409928    66.5512409928    76.3845743261    82.2179076595    65.8845743261    49.5512409928    45.0512409928    35.2179076595     3.0512409928   -31.4487590072   -64.4487590072   -63.6154256739   -66.1154256739   -83.7820923405  -108.2820923405  -142.2820923405  -170.2820923405  -191.2820923405  -221.1154256739  -261.2820923405  -289.9487590072  -320.9487590072  -375.1154256739  -477.6154256739  -555.4487590072  -628.6154256739  -681.4487590072  -772.6154256739  -869.1154256739  -915.1154256739  -920.9487590072  -909.2820923405  -894.6154256739  -879.1154256739  -862.9487590072  -835.6154256739  -817.2820923405  -798.9487590072  -764.9487590072  -700.1154256739  -647.1154256739  -588.7820923405  -556.6154256739  -499.2820923405  -444.7820923405  -433.9487590072  -464.2820923405  -488.7820923405  -499.1154256739  -519.4487590072  -545.2820923405  -568.7820923405  -587.1154256739  -597.1154256739  -612.1154256739  -620.6154256739  -627.4487590072  -630.9487590072  -620.4487590072  -597.9487590072  -557.1154256739  -519.4487590072  -487.9487590072  -477.4487590072  -493.6154256739  -506.4487590072  -509.1154256739  -491.6154256739  -467.7820923405  -453.1154256739  -441.1154256739  -421.6154256739  -392.1154256739  -369.6154256739  -360.4487590072  -343.4487590072  -335.9487590072  -327.9487590072  -298.4487590072  -268.9487590072  -235.1154256739  -214.7820923405  -180.1154256739  -155.9487590072  -139.4487590072  -123.2820923405  -110.7820923405   -96.9487590072   -86.6154256739   -82.7820923405   -76.1154256739   -86.2820923405   -92.4487590072   -98.1154256739  -114.1154256739  -121.7820923405  -117.1154256739  -114.7820923405  -135.6154256739  -154.2820923405  -159.7820923405  -162.9487590072  -163.4487590072  -149.6154256739  -142.2820923405  -140.4487590072  -130.6154256739  -117.2820923405  -115.2820923405  -114.7820923405  -100.4487590072   -99.2820923405  -111.1154256739  -111.4487590072   -94.6154256739   -82.2820923405   -80.6154256739   -83.1154256739   -78.7820923405   -85.2820923405   -83.2820923405   -65.1154256739   -47.9487590072   -20.4487590072    19.8845743261    70.3845743261   105.0512409928   146.0512409928   197.0512409928   253.3845743261   302.0512409928   344.7179076595   391.0512409928   438.5512409928   486.5512409928   527.2179076595   560.2179076595   586.2179076595   605.7179076595   610.2179076595   597.0512409928   566.5512409928   533.8845743261   502.2179076595   470.0512409928   434.0512409928   392.5512409928   354.8845743261   315.5512409928   271.5512409928   222.8845743261   177.0512409928   134.3845743261    93.3845743261    50.0512409928    13.7179076595    -8.9487590072   -17.1154256739   -16.6154256739   -16.9487590072   -21.9487590072   -23.2820923405   -24.9487590072   -22.9487590072   -13.6154256739     0.0512409928    18.7179076595    40.5512409928    65.2179076595    94.0512409928   126.3845743261   157.2179076595   184.2179076595   204.7179076595   221.7179076595   242.0512409928   264.8845743261   289.3845743261   311.0512409928   322.8845743261   329.2179076595   336.7179076595   344.8845743261   349.7179076595   351.8845743261   349.7179076595   343.7179076595   339.8845743261   337.2179076595   336.8845743261   334.2179076595   326.7179076595   317.3845743261   304.5512409928   297.7179076595   292.7179076595   285.8845743261   280.0512409928   276.2179076595   273.5512409928   275.0512409928   277.7179076595   280.3845743261   282.2179076595   283.0512409928   281.3845743261   279.8845743261   282.3845743261   292.2179076595   300.8845743261   305.7179076595   310.8845743261   316.3845743261   321.7179076595   324.0512409928   329.5512409928   330.2179076595   325.7179076595   322.7179076595   322.5512409928   327.5512409928   329.7179076595   328.2179076595   325.8845743261   319.7179076595   314.3845743261   307.5512409928   303.3845743261   302.2179076595   298.0512409928   295.8845743261   289.0512409928   285.0512409928   286.8845743261   292.0512409928   292.3845743261   287.2179076595   284.5512409928   287.7179076595   294.8845743261   305.2179076595   313.3845743261   320.8845743261   328.7179076595   333.5512409928   338.3845743261   340.3845743261   342.7179076595   345.5512409928   348.0512409928   346.7179076595   347.7179076595   353.0512409928   357.3845743261   356.0512409928   346.7179076595   331.2179076595   319.2179076595   311.8845743261   303.7179076595   295.5512409928   287.7179076595   282.7179076595   279.7179076595   279.3845743261   278.0512409928   272.2179076595   265.8845743261   255.8845743261   249.3845743261   244.7179076595   242.3845743261   241.3845743261   241.3845743261   240.7179076595   237.5512409928   236.2179076595   233.7179076595   233.8845743261   231.3845743261   224.5512409928   215.2179076595   211.0512409928   206.0512409928   202.2179076595   196.8845743261   197.2179076595   200.5512409928   202.7179076595   202.5512409928   199.7179076595   197.5512409928   194.2179076595   192.8845743261   189.7179076595   186.7179076595   181.5512409928   180.7179076595   183.0512409928   184.8845743261   184.2179076595   181.0512409928   175.0512409928   158.7147050974   144.0448358687   130.3749666400   118.8717640779   109.7018948492   101.5320256205    92.3621563918    80.5256204964 
  -10.3122159850   -11.3283881315   -10.8445602780   -11.3607324245   -12.3769045710   -14.7264100508   -17.5759155306   -20.7587543438   -25.4254210104   -29.4254210104   -31.7587543438   -33.4254210104   -33.9254210104   -33.7587543438   -29.0920876771   -26.7587543438   -23.9254210104   -23.2587543438   -24.7587543438   -27.2587543438   -29.5920876771   -30.0920876771   -29.7587543438   -30.0920876771   -32.2587543438   -32.2587543438   -30.9254210104   -27.5920876771   -24.4254210104   -23.5920876771   -25.4254210104   -26.7587543438   -27.4254210104   -27.7587543438   -27.2587543438   -24.4254210104   -20.2587543438   -18.7587543438   -17.5920876771   -17.5920876771   -14.2587543438   -12.7587543438   -10.7587543438   -11.4254210104   -14.0920876771   -16.0920876771   -17.4254210104   -18.2587543438   -17.4254210104   -16.0920876771   -14.2587543438   -12.4254210104   -12.2587543438    -9.9254210104    -8.0920876771    -3.7587543438    -0.5920876771     2.0745789896     4.0745789896     5.9079123229     6.4079123229     8.4079123229    12.2412456562    15.5745789896    18.2412456562    19.2412456562    19.7412456562    20.7412456562    18.7412456562    14.4079123229    10.0745789896     6.2412456562     3.4079123229     0.5745789896    -2.5920876771    -6.4254210104    -6.9254210104    -5.2587543438    -4.7587543438    -4.0920876771    -5.4254210104    -1.4254210104     2.2412456562     3.2412456562     6.9079123229    11.5745789896    16.4079123229    20.7412456562    24.2412456562    28.0745789896    31.5745789896    36.0745789896    39.5745789896    38.9079123229    35.4079123229    32.9079123229    31.0745789896    27.0745789896    23.0745789896    21.2412456562    21.0745789896    21.5745789896    22.0745789896    21.9079123229    20.7412456562    19.9079123229    17.9079123229    16.4079123229    15.4079123229    15.4079123229    17.7412456562    20.7412456562    24.4079123229    24.2412456562    21.2412456562    18.5745789896    16.4079123229    14.2412456562    12.2412456562    10.2412456562     9.0745789896     9.0745789896    10.7412456562    11.2412456562     9.7412456562     8.2412456562     7.4079123229     7.0745789896     6.7412456562     8.0745789896    10.9079123229    13.7412456562    14.4079123229    13.7412456562    12.7412456562    12.0745789896    11.7412456562    10.2412456562     6.9079123229     3.7412456562    -1.4254210104    -2.7587543438    -5.7587543438   -12.0920876771   -18.0920876771   -24.0920876771   -29.4254210104   -29.2587543438   -28.4254210104   -28.2587543438   -25.7587543438   -24.5920876771   -18.5920876771   -12.9254210104     2.5745789896    21.9079123229    40.7412456562    56.0745789896    68.2412456562    61.9079123229    44.7412456562    20.7412456562    -0.9254210104    -7.0920876771    -2.2587543438    10.4079123229    24.9079123229    36.2412456562    22.5745789896    -0.0920876771   -16.4254210104   -47.0920876771  -102.0920876771  -138.9254210104  -159.9254210104  -154.7587543438  -138.7587543438  -115.5920876771  -105.4254210104  -104.4254210104  -145.9254210104  -201.9254210104  -237.9254210104  -286.4254210104  -342.0920876771  -440.5920876771  -532.2587543438  -609.5920876771  -634.5920876771  -654.5920876771  -672.9254210104  -691.7587543438  -704.7587543438  -732.4254210104  -774.5920876771  -827.7587543438  -848.7587543438  -858.9254210104  -899.0920876771  -928.5920876771  -940.0920876771  -908.2587543438  -897.2587543438  -889.0920876771  -889.2587543438  -905.0920876771  -940.2587543438  -958.0920876771  -971.4254210104  -971.7587543438  -944.4254210104  -923.0920876771  -911.2587543438  -907.0920876771  -898.4254210104  -883.9254210104  -858.4254210104  -821.4254210104  -796.5920876771  -758.0920876771  -718.5920876771  -682.5920876771  -640.5920876771  -617.5920876771  -602.5920876771  -598.2587543438  -598.5920876771  -594.4254210104  -572.9254210104  -535.5920876771  -507.2587543438  -492.5920876771  -460.9254210104  -420.7587543438  -368.7587543438  -327.9254210104  -313.9254210104  -317.4254210104  -334.2587543438  -329.0920876771  -309.7587543438  -280.0920876771  -242.0920876771  -205.0920876771  -183.7587543438  -168.5920876771  -143.0920876771  -115.5920876771  -126.7587543438  -132.5920876771  -129.7587543438  -128.4254210104  -134.7587543438  -111.0920876771   -68.0920876771   -47.5920876771   -47.5920876771   -40.4254210104   -54.0920876771   -69.4254210104   -64.2587543438   -63.7587543438   -78.5920876771   -86.2587543438   -64.9254210104   -61.0920876771   -57.2587543438   -63.4254210104   -56.5920876771   -57.7587543438   -46.5920876771   -61.9254210104   -86.9254210104  -113.9254210104  -120.7587543438  -125.4254210104  -151.5920876771  -179.7587543438  -181.4254210104  -172.2587543438  -170.0920876771  -170.0920876771  -181.2587543438  -185.7587543438  -185.7587543438  -188.7587543438  -205.7587543438  -197.4254210104  -168.7587543438  -141.0920876771  -113.0920876771   -81.5920876771   -39.0920876771    10.7412456562    53.7412456562    94.7412456562   137.7412456562   184.7412456562   232.0745789896   281.0745789896   325.7412456562   363.4079123229   393.9079123229   421.0745789896   440.4079123229   457.2412456562   468.4079123229   475.0745789896   475.4079123229   467.9079123229   456.9079123229   442.5745789896   424.2412456562   405.2412456562   389.9079123229   373.7412456562   356.4079123229   339.7412456562   325.9079123229   314.7412456562   305.2412456562   296.5745789896   290.4079123229   285.5745789896   283.5745789896   287.9079123229   292.9079123229   297.5745789896   301.2412456562   305.4079123229   307.0745789896   311.0745789896   324.0745789896   338.9079123229   351.5745789896   359.2412456562   365.0745789896   372.5745789896   380.9079123229   389.0745789896   396.9079123229   401.5745789896   406.9079123229   414.9079123229   422.9079123229   430.0745789896   437.5745789896   443.7412456562   446.2412456562   447.5745789896   452.5745789896   462.0745789896   470.7412456562   477.2412456562   481.0745789896   481.9079123229   484.4079123229   487.2412456562   486.0745789896   478.7412456562   469.9079123229   462.9079123229   455.5745789896   448.0745789896   439.7412456562   432.7412456562   425.0745789896   416.0745789896   409.0745789896   401.7412456562   396.5745789896   395.0745789896   394.4079123229   395.0745789896   400.5745789896   409.5745789896   418.9079123229   424.5745789896   430.2412456562   434.0745789896   439.2412456562   447.9079123229   452.9079123229   455.7412456562   454.4079123229   451.7412456562   449.4079123229   447.5745789896   442.4079123229   433.5745789896   421.4079123229   409.7412456562   398.2412456562   387.2412456562   378.7412456562   373.0745789896   368.9079123229   360.5745789896   354.7412456562   351.2412456562   349.7412456562   349.9079123229   346.5745789896   341.0745789896   335.4079123229   334.9079123229   337.4079123229   338.2412456562   340.2412456562   342.7412456562   345.0745789896   346.4079123229   345.5745789896   343.4079123229   339.5745789896   334.2412456562   331.2412456562   330.4079123229   333.7412456562   334.2412456562   335.4079123229   334.2412456562   329.9079123229   323.0745789896   315.9079123229   308.9079123229   300.4079123229   294.9079123229   289.0745789896   283.7412456562   279.0745789896   275.2412456562   272.0745789896   264.0745789896   251.9079123229   246.2412456562   242.2412456562   235.4079123229   231.2412456562   227.4079123229   223.9079123229   221.9079123229   219.0745789896   213.7412456562   209.0745789896   208.4079123229   208.7412456562   208.9079123229   208.2412456562   211.7412456562   214.9079123229   214.0745789896   210.4079123229   206.4079123229   201.5745789896   202.9079123229   206.0745789896   210.9079123229   212.7412456562   212.9079123229   211.4079123229   209.0745789896   207.9079123229   207.4079123229   208.5745789896   208.2412456562   206.0745789896   202.0745789896   200.7412456562   201.9079123229   201.4079123229   197.9079123229   193.2412456562   177.0907511361   164.2735899492   152.4564287624   141.9726009089   128.8221063887   114.8382785352   100.6877840150    84.3706228281 
   -7.7838270617    -8.4264745129    -8.4024552976    -9.0451027489   -10.5210835335   -11.4970643181   -10.3063784361    -8.4490258874    -5.2823592207    -3.1156925541    -2.1156925541    -0.4490258874    -1.1156925541    -3.2823592207    -0.6156925541     2.3843074459     4.7176407793     7.3843074459     6.8843074459     5.2176407793     3.7176407793     4.3843074459     4.2176407793     3.8843074459     3.7176407793     3.2176407793     3.0509741126     4.2176407793     8.7176407793    15.3843074459    20.7176407793    25.5509741126    28.0509741126    28.7176407793    32.0509741126    37.5509741126    45.7176407793    50.2176407793    51.2176407793    48.7176407793    44.5509741126    40.5509741126    36.8843074459    32.2176407793    25.8843074459    17.7176407793    12.0509741126     6.8843074459     1.3843074459    -4.2823592207   -10.4490258874   -14.6156925541   -18.6156925541   -25.2823592207   -31.2823592207   -34.2823592207   -33.9490258874   -29.9490258874   -24.1156925541   -20.1156925541   -16.9490258874   -11.7823592207    -9.6156925541    -8.1156925541    -6.4490258874    -4.4490258874    -1.4490258874    -2.4490258874    -5.2823592207    -2.7823592207     0.8843074459     5.8843074459     7.3843074459     6.0509741126     2.3843074459     0.8843074459    -0.7823592207    -4.6156925541    -7.6156925541   -11.7823592207   -13.6156925541   -12.4490258874   -11.4490258874    -9.9490258874   -10.4490258874   -12.1156925541    -9.7823592207    -7.4490258874    -4.7823592207    -2.2823592207    -0.9490258874    -1.4490258874    -0.9490258874     0.8843074459     1.0509741126     2.3843074459     2.7176407793     2.3843074459     2.3843074459     2.8843074459     3.3843074459     3.5509741126    -1.6156925541    -6.9490258874   -11.1156925541   -15.2823592207   -16.9490258874   -17.6156925541   -18.4490258874   -20.1156925541   -22.1156925541   -22.4490258874   -22.7823592207   -24.9490258874   -28.6156925541   -31.6156925541   -32.2823592207   -31.7823592207   -31.1156925541   -30.6156925541   -30.6156925541   -24.2823592207   -19.9490258874   -18.2823592207   -18.2823592207   -20.7823592207   -22.2823592207   -21.1156925541   -24.2823592207   -25.4490258874   -20.2823592207   -13.7823592207    -9.1156925541    -8.1156925541    -8.6156925541   -10.6156925541   -11.9490258874   -15.4490258874   -16.6156925541   -18.4490258874   -21.7823592207   -19.2823592207   -12.4490258874    -6.2823592207     3.7176407793    -7.6156925541   -18.2823592207   -16.1156925541    -6.9490258874    -5.1156925541    -2.9490258874    -6.9490258874   -11.4490258874   -20.1156925541   -25.1156925541   -36.1156925541   -51.7823592207   -38.2823592207   -29.6156925541   -20.6156925541   -10.1156925541    40.0509741126    84.0509741126    98.0509741126    94.5509741126    99.5509741126    97.7176407793    93.2176407793   102.2176407793   133.3843074459   149.0509741126   161.0509741126   182.7176407793   164.5509741126   163.3843074459   185.2176407793   201.5509741126   164.3843074459   112.2176407793    76.0509741126    49.8843074459    28.7176407793     3.3843074459    -4.7823592207   -54.4490258874  -145.4490258874  -215.9490258874  -257.6156925541  -293.7823592207  -321.9490258874  -375.4490258874  -459.2823592207  -547.1156925541  -601.2823592207  -630.9490258874  -657.7823592207  -689.9490258874  -740.6156925541  -773.4490258874  -801.4490258874  -803.6156925541  -788.1156925541  -782.2823592207  -791.9490258874  -808.1156925541  -810.1156925541  -802.6156925541  -799.7823592207  -795.2823592207  -780.7823592207  -769.9490258874  -765.4490258874  -769.6156925541  -751.4490258874  -729.2823592207  -710.9490258874  -685.6156925541  -650.2823592207  -605.4490258874  -558.7823592207  -521.9490258874  -501.1156925541  -481.7823592207  -456.6156925541  -426.4490258874  -410.6156925541  -391.4490258874  -362.7823592207  -312.2823592207  -269.6156925541  -236.4490258874  -218.2823592207  -205.4490258874  -209.6156925541  -225.9490258874  -245.9490258874  -252.1156925541  -255.1156925541  -254.1156925541  -239.1156925541  -222.2823592207  -200.6156925541  -187.2823592207  -181.9490258874  -182.9490258874  -188.1156925541  -188.9490258874  -173.7823592207  -168.2823592207  -152.6156925541  -131.1156925541  -111.1156925541  -102.1156925541  -113.7823592207   -97.9490258874   -79.7823592207   -79.7823592207   -92.6156925541  -110.9490258874  -123.7823592207  -122.6156925541  -114.7823592207  -105.7823592207  -112.2823592207  -111.9490258874  -109.9490258874  -116.2823592207  -112.4490258874  -109.2823592207   -75.9490258874   -72.4490258874   -86.2823592207   -80.7823592207   -59.9490258874   -34.4490258874   -11.4490258874    -3.6156925541    -4.1156925541   -18.7823592207   -29.4490258874   -36.1156925541   -38.1156925541    -7.9490258874    17.0509741126    45.8843074459    67.7176407793    88.5509741126   114.2176407793   137.3843074459   157.0509741126   176.7176407793   197.3843074459   218.7176407793   244.5509741126   280.2176407793   320.5509741126   364.5509741126   401.2176407793   414.5509741126   414.3843074459   407.2176407793   392.0509741126   374.3843074459   354.3843074459   332.7176407793   310.2176407793   290.2176407793   268.8843074459   246.2176407793   231.0509741126   213.8843074459   191.0509741126   161.7176407793   131.2176407793    97.8843074459    78.7176407793    73.5509741126    74.7176407793    82.5509741126    93.5509741126   109.5509741126   130.5509741126   153.0509741126   173.0509741126   193.2176407793   205.2176407793   222.7176407793   242.8843074459   268.0509741126   297.2176407793   322.0509741126   338.8843074459   349.8843074459   355.7176407793   359.3843074459   362.5509741126   364.7176407793   364.2176407793   357.0509741126   350.5509741126   344.8843074459   338.3843074459   326.7176407793   316.7176407793   308.3843074459   294.2176407793   284.0509741126   279.8843074459   275.5509741126   274.3843074459   275.2176407793   275.2176407793   273.5509741126   271.8843074459   271.5509741126   272.0509741126   271.8843074459   275.5509741126   278.3843074459   279.3843074459   275.8843074459   278.7176407793   278.7176407793   275.5509741126   275.3843074459   276.8843074459   276.0509741126   273.8843074459   273.5509741126   272.7176407793   271.3843074459   268.7176407793   266.5509741126   261.2176407793   259.0509741126   258.7176407793   260.0509741126   261.0509741126   264.7176407793   269.2176407793   272.5509741126   274.3843074459   275.5509741126   277.7176407793   276.3843074459   275.8843074459   276.0509741126   277.8843074459   278.8843074459   282.8843074459   285.3843074459   286.7176407793   286.5509741126   284.8843074459   280.0509741126   278.5509741126   274.0509741126   269.3843074459   263.0509741126   256.8843074459   255.0509741126   253.3843074459   252.8843074459   252.7176407793   255.2176407793   257.5509741126   258.0509741126   257.8843074459   259.8843074459   257.3843074459   253.8843074459   250.3843074459   249.7176407793   247.0509741126   245.5509741126   244.2176407793   241.8843074459   239.2176407793   236.5509741126   233.0509741126   236.3843074459   235.3843074459   235.3843074459   230.5509741126   221.2176407793   213.7176407793   209.2176407793   204.0509741126   198.3843074459   195.2176407793   190.0509741126   187.0509741126   183.7176407793   178.8843074459   172.8843074459   166.0509741126   150.5509741126   140.5509741126   133.0509741126   130.3843074459   129.8843074459   133.2176407793   137.7176407793   143.3843074459   146.3843074459   146.2176407793   148.5509741126   149.5509741126   149.7176407793   148.8843074459   150.3843074459   154.8843074459   159.0509741126   161.2176407793   157.5509741126   155.2176407793   152.2176407793   146.3843074459   138.7176407793   128.7176407793   121.2176407793   119.2176407793   118.8843074459   120.3843074459   119.2176407793   119.5509741126   118.7176407793   114.7176407793   109.5509741126   103.7176407793   103.7176407793   103.8843074459   104.8843074459    99.8602882306    95.5029356819    90.8122497998    86.6215639178    79.7642113691    71.7401921537    61.0495062717    52.5254870563 
   -0.8189448441    -1.0766053824    -0.5009325873     0.2414068745    -0.8495869971    -0.1072475353     2.6350919265     5.2107647216     6.5440980549     7.0440980549     9.7107647216    12.5440980549    15.2107647216    16.2107647216    14.7107647216    15.3774313882    18.0440980549    21.3774313882    23.5440980549    23.3774313882    23.7107647216    20.8774313882    16.8774313882    12.5440980549     8.2107647216     6.8774313882     6.2107647216     7.2107647216     6.7107647216     6.5440980549     8.2107647216    10.0440980549    10.5440980549     7.5440980549     4.2107647216     2.7107647216     4.8774313882     8.7107647216    12.7107647216    17.0440980549    22.8774313882    25.2107647216    26.8774313882    24.7107647216    23.7107647216    23.0440980549    23.0440980549    22.2107647216    22.0440980549    22.7107647216    23.5440980549    26.8774313882    28.8774313882    30.8774313882    31.2107647216    32.2107647216    32.3774313882    34.5440980549    35.5440980549    37.5440980549    38.0440980549    38.3774313882    36.8774313882    35.3774313882    35.0440980549    36.5440980549    38.8774313882    38.2107647216    35.5440980549    31.8774313882    29.8774313882    27.5440980549    26.5440980549    22.8774313882    20.8774313882    21.8774313882    23.8774313882    24.2107647216    23.5440980549    24.7107647216    24.0440980549    22.5440980549    18.7107647216    16.0440980549    14.8774313882    17.7107647216    18.2107647216    17.0440980549    14.5440980549    13.7107647216    13.2107647216     9.8774313882     6.7107647216     2.3774313882    -0.2892352784    -3.9559019451    -7.6225686118   -10.1225686118   -10.4559019451   -11.6225686118   -13.4559019451   -17.7892352784   -21.6225686118   -24.9559019451   -28.7892352784   -32.2892352784   -36.7892352784   -41.7892352784   -44.4559019451   -45.7892352784   -47.7892352784   -46.7892352784   -45.6225686118   -44.9559019451   -45.2892352784   -44.1225686118   -43.1225686118   -42.6225686118   -40.7892352784   -38.6225686118   -34.9559019451   -31.1225686118   -28.1225686118   -25.1225686118   -25.6225686118   -23.6225686118   -20.9559019451   -20.2892352784   -20.2892352784   -22.4559019451   -24.1225686118   -25.1225686118   -24.1225686118   -23.7892352784   -23.6225686118   -22.4559019451   -22.7892352784   -24.6225686118   -25.4559019451   -26.4559019451   -24.9559019451   -24.1225686118   -21.7892352784   -18.4559019451   -14.2892352784   -10.2892352784    -3.9559019451    -2.6225686118    -3.6225686118    -3.1225686118     2.8774313882    10.7107647216    15.8774313882    24.5440980549    34.8774313882    46.8774313882    66.8774313882    82.7107647216    82.7107647216    65.5440980549    66.0440980549    85.2107647216    94.0440980549    98.0440980549    95.3774313882    76.0440980549    51.8774313882    32.7107647216     1.7107647216   -22.4559019451   -27.9559019451   -26.1225686118   -31.2892352784   -42.6225686118   -54.7892352784   -46.4559019451   -37.6225686118   -62.4559019451   -91.4559019451   -89.1225686118   -89.2892352784   -88.1225686118  -119.6225686118  -169.7892352784  -210.7892352784  -254.9559019451  -326.7892352784  -408.1225686118  -490.6225686118  -562.2892352784  -617.2892352784  -687.2892352784  -771.2892352784  -846.1225686118  -919.1225686118 -1038.6225686118 -1166.4559019451 -1274.2892352784 -1389.1225686118 -1517.6225686118 -1574.1225686118 -1551.4559019451 -1478.7892352784 -1389.6225686118 -1306.4559019451 -1238.2892352784 -1181.7892352784 -1114.4559019451 -1051.9559019451  -998.1225686118  -938.1225686118  -858.4559019451  -757.6225686118  -657.9559019451  -521.4559019451  -361.2892352784  -262.7892352784  -238.4559019451  -269.7892352784  -320.1225686118  -361.4559019451  -392.6225686118  -421.2892352784  -449.4559019451  -470.7892352784  -480.2892352784  -497.1225686118  -506.7892352784  -510.9559019451  -506.4559019451  -508.6225686118  -509.6225686118  -518.2892352784  -529.1225686118  -515.7892352784  -501.2892352784  -481.1225686118  -452.7892352784  -408.7892352784  -367.4559019451  -332.6225686118  -297.1225686118  -247.2892352784  -196.1225686118  -152.2892352784  -116.9559019451   -72.9559019451   -24.6225686118    27.7107647216    63.3774313882    78.8774313882    69.0440980549    73.3774313882    79.5440980549    69.8774313882    63.2107647216    55.8774313882    60.7107647216    68.7107647216    83.0440980549    90.0440980549    91.7107647216    90.8774313882    76.7107647216    66.3774313882    64.3774313882    71.3774313882   108.8774313882   118.3774313882   116.5440980549   118.3774313882   129.0440980549   137.8774313882   135.8774313882   118.7107647216    87.7107647216    64.7107647216    41.8774313882    23.7107647216    19.7107647216    12.0440980549     6.0440980549     3.3774313882     0.8774313882     8.7107647216    40.0440980549    71.5440980549    91.5440980549   113.8774313882   138.2107647216   171.8774313882   210.3774313882   245.7107647216   276.0440980549   300.8774313882   320.3774313882   338.0440980549   353.5440980549   364.2107647216   369.2107647216   369.0440980549   352.8774313882   335.7107647216   315.7107647216   294.0440980549   271.5440980549   250.8774313882   229.2107647216   209.0440980549   195.3774313882   186.8774313882   179.0440980549   174.5440980549   172.2107647216   173.7107647216   181.2107647216   188.0440980549   193.7107647216   205.2107647216   219.7107647216   239.3774313882   263.2107647216   283.8774313882   303.0440980549   319.7107647216   334.3774313882   346.5440980549   358.7107647216   367.8774313882   375.7107647216   383.3774313882   387.7107647216   390.8774313882   391.2107647216   391.3774313882   392.7107647216   392.8774313882   388.8774313882   386.2107647216   380.3774313882   376.7107647216   375.2107647216   376.5440980549   378.5440980549   381.3774313882   381.0440980549   378.8774313882   378.0440980549   376.8774313882   374.8774313882   371.8774313882   369.0440980549   365.3774313882   365.5440980549   367.8774313882   373.3774313882   378.0440980549   381.5440980549   381.8774313882   380.3774313882   379.2107647216   381.3774313882   384.2107647216   384.3774313882   385.2107647216   388.3774313882   391.5440980549   392.3774313882   392.7107647216   391.5440980549   389.2107647216   387.3774313882   385.7107647216   380.8774313882   376.7107647216   374.2107647216   372.3774313882   370.7107647216   369.0440980549   370.2107647216   370.8774313882   370.0440980549   369.2107647216   367.0440980549   367.3774313882   367.8774313882   369.0440980549   369.5440980549   368.5440980549   369.0440980549   368.5440980549   367.3774313882   366.0440980549   362.8774313882   357.7107647216   352.3774313882   350.0440980549   349.2107647216   347.8774313882   346.7107647216   343.5440980549   339.5440980549   334.3774313882   328.0440980549   328.0440980549   330.8774313882   335.2107647216   337.5440980549   335.7107647216   333.5440980549   332.8774313882   331.8774313882   329.3774313882   326.0440980549   322.7107647216   321.5440980549   319.8774313882   319.7107647216   317.7107647216   318.7107647216   316.5440980549   312.2107647216   305.5440980549   298.8774313882   291.5440980549   288.7107647216   286.7107647216   285.0440980549   282.3774313882   279.3774313882   277.0440980549   274.3774313882   270.2107647216   266.0440980549   262.7107647216   258.5440980549   253.0440980549   248.0440980549   245.7107647216   243.7107647216   245.8774313882   243.2107647216   238.3774313882   232.5440980549   226.8774313882   223.3774313882   219.3774313882   216.2107647216   214.0440980549   211.2107647216   207.3774313882   203.8774313882   201.3774313882   200.8774313882   197.3774313882   194.3774313882   192.7107647216   193.0440980549   194.3774313882   194.2107647216   195.0440980549   195.7107647216   197.0440980549   196.5440980549   196.2107647216   194.8774313882   193.3774313882   192.2107647216   190.2107647216   185.5440980549   184.7107647216   186.8774313882   187.3774313882   174.3017585931   161.5594191314   150.4837463363   138.7414068745   125.9990674127   112.5900612843   100.6810551559    89.1053823608 
