    9.8470997060    12.2004811548    16.2205292703    19.4072440524    19.7606255012    19.6140069500    20.8007217322    20.8207698476    18.6541031810    18.3207698476    17.1541031810    16.9874365143    14.1541031810    10.6541031810     7.6541031810     4.8207698476     1.8207698476    -3.8458968190   -11.1792301524   -16.6792301524   -18.3458968190   -19.0125634857   -20.5125634857   -22.1792301524   -23.0125634857   -25.1792301524   -26.3458968190   -24.3458968190   -20.8458968190   -18.3458968190   -15.5125634857   -11.3458968190    -8.1792301524    -5.0125634857    -1.3458968190     2.1541031810     3.9874365143     4.1541031810     4.3207698476     7.9874365143    13.3207698476    17.6541031810    19.3207698476    16.1541031810    11.8207698476    10.3207698476    11.1541031810    10.9874365143     9.8207698476     9.6541031810     8.4874365143     5.8207698476     3.6541031810     2.3207698476    -0.1792301524    -3.5125634857    -5.6792301524    -6.1792301524    -6.5125634857    -6.1792301524    -5.3458968190    -4.8458968190    -3.6792301524    -1.5125634857    -1.3458968190    -2.1792301524    -1.0125634857     2.8207698476     5.1541031810     7.3207698476    11.4874365143    13.1541031810    14.1541031810    12.8207698476    10.8207698476     9.8207698476     8.9874365143     7.6541031810     3.3207698476    -1.8458968190    -4.8458968190    -6.3458968190    -7.6792301524    -8.8458968190    -9.8458968190   -11.1792301524   -11.6792301524   -10.8458968190   -14.3458968190   -16.0125634857   -14.1792301524   -12.6792301524   -12.8458968190   -14.3458968190   -13.8458968190   -14.3458968190   -14.6792301524   -16.0125634857   -20.8458968190   -26.5125634857   -27.6792301524   -23.8458968190   -21.8458968190   -19.8458968190   -17.8458968190   -19.0125634857   -22.5125634857   -23.5125634857   -23.0125634857   -20.0125634857   -17.6792301524   -12.8458968190    -6.5125634857    -0.8458968190     8.9874365143    17.8207698476    21.8207698476    21.8207698476    20.1541031810    15.8207698476    13.8207698476    16.4874365143    15.8207698476     8.3207698476    -1.0125634857    -7.3458968190    -8.8458968190    -9.1792301524   -11.6792301524   -14.0125634857   -16.3458968190   -20.6792301524   -29.6792301524   -41.5125634857   -59.1792301524   -74.3458968190   -81.0125634857   -98.1792301524  -137.5125634857  -183.6792301524  -209.8458968190  -245.8458968190  -311.5125634857  -368.8458968190  -433.8458968190  -514.5125634857  -550.5125634857  -493.1792301524  -409.3458968190  -385.6792301524  -385.5125634857  -339.3458968190  -286.0125634857  -190.0125634857   -83.6792301524   -19.3458968190   -15.8458968190   -10.6792301524    28.6541031810    91.3207698476   162.1541031810   288.3207698476   371.8207698476   330.6541031810   258.1541031810   303.4874365143   361.6541031810   360.3207698476   330.1541031810   252.9874365143   150.1541031810   105.6541031810   131.8207698476   162.6541031810   174.6541031810   125.8207698476    47.1541031810   -58.6792301524  -135.3458968190  -179.0125634857  -257.0125634857  -429.6792301524  -563.3458968190  -657.1792301524  -739.3458968190  -824.3458968190  -893.6792301524  -952.3458968190 -1057.5125634857 -1141.6792301524 -1199.5125634857 -1218.1792301524 -1211.8458968190 -1224.3458968190 -1286.8458968190 -1358.5125634857 -1383.5125634857 -1366.5125634857 -1365.6792301524 -1385.0125634857 -1401.6792301524 -1397.0125634857 -1361.8458968190 -1345.3458968190 -1312.3458968190 -1301.8458968190 -1319.8458968190 -1357.1792301524 -1364.8458968190 -1352.6792301524 -1317.0125634857 -1281.8458968190 -1268.6792301524 -1246.5125634857 -1204.0125634857 -1166.6792301524 -1124.1792301524 -1076.0125634857 -1034.5125634857 -1000.1792301524  -970.1792301524  -914.6792301524  -838.3458968190  -747.8458968190  -674.8458968190  -605.6792301524  -539.8458968190  -466.0125634857  -369.5125634857  -279.5125634857  -217.3458968190  -158.8458968190  -108.1792301524   -67.1792301524   -17.5125634857    47.1541031810   123.4874365143   178.8207698476   225.1541031810   265.4874365143   300.4874365143   327.8207698476   350.3207698476   372.4874365143   387.9874365143   399.4874365143   414.8207698476   434.1541031810   455.1541031810   476.4874365143   491.1541031810   502.8207698476   510.1541031810   515.1541031810   516.1541031810   513.3207698476   509.6541031810   501.1541031810   493.6541031810   488.1541031810   487.4874365143   483.6541031810   478.3207698476   468.9874365143   460.3207698476   451.3207698476   445.3207698476   440.6541031810   434.9874365143   427.4874365143   420.9874365143   418.3207698476   415.1541031810   414.1541031810   413.3207698476   413.9874365143   416.6541031810   421.8207698476   427.1541031810   433.1541031810   439.6541031810   445.3207698476   449.3207698476   448.4874365143   444.6541031810   441.1541031810   441.3207698476   440.3207698476   437.8207698476   436.6541031810   436.3207698476   435.9874365143   435.1541031810   435.6541031810   433.8207698476   432.8207698476   429.4874365143   425.4874365143   419.3207698476   412.3207698476   408.8207698476   405.8207698476   403.8207698476   400.6541031810   397.1541031810   394.9874365143   394.9874365143   396.1541031810   394.1541031810   391.4874365143   390.4874365143   389.8207698476   389.8207698476   387.9874365143   386.1541031810   386.9874365143   386.3207698476   385.8207698476   382.3207698476   381.3207698476   381.9874365143   380.4874365143   374.6541031810   365.9874365143   357.3207698476   347.9874365143   341.4874365143   337.4874365143   333.3207698476   332.8207698476   335.3207698476   334.6541031810   332.9874365143   328.1541031810   326.1541031810   322.1541031810   322.4874365143   325.8207698476   329.8207698476   332.4874365143   337.4874365143   344.1541031810   347.4874365143   351.3207698476   353.1541031810   349.1541031810   345.4874365143   348.1541031810   352.3207698476   358.4874365143   362.9874365143   368.9874365143   371.1541031810   368.8207698476   365.9874365143   363.6541031810   361.8207698476   358.3207698476   353.8207698476   345.3207698476   338.6541031810   334.6541031810   327.4874365143   314.6541031810   304.3207698476   297.6541031810   290.8207698476   284.4874365143   276.6541031810   268.4874365143   261.9874365143   257.9874365143   251.8207698476   244.8207698476   239.8207698476   236.3207698476   232.6541031810   231.4874365143   231.4874365143   233.1541031810   232.3207698476   229.4874365143   227.6541031810   223.9874365143   223.1541031810   224.1541031810   224.9874365143   224.6541031810   226.1541031810   228.6541031810   233.4874365143   238.4874365143   241.4874365143   242.8207698476   243.8207698476   247.4874365143   250.8207698476   252.6541031810   252.4874365143   252.3207698476   252.8207698476   253.1541031810   254.1541031810   254.4874365143   254.9874365143   254.1541031810   249.3207698476   242.4874365143   235.4874365143   230.6541031810   227.3207698476   224.6541031810   221.4874365143   217.3207698476   214.3207698476   214.6541031810   212.4874365143   210.6541031810   205.9874365143   200.9874365143   194.9874365143   191.3207698476   189.4874365143   189.9874365143   192.3207698476   192.3207698476   192.3207698476   189.3207698476   187.1541031810   183.8207698476   179.9874365143   173.1541031810   168.4874365143   164.6541031810   161.4874365143   159.1541031810   157.1541031810   152.9874365143   147.9874365143   142.1541031810   137.3207698476   134.9874365143   130.6541031810   123.8207698476   115.6541031810   111.3207698476   110.8207698476   115.1541031810   116.4874365143   114.9874365143   113.4874365143   110.9874365143   108.1541031810   105.8207698476   104.4874365143   104.6541031810   104.1541031810   102.1541031810   101.4874365143   103.9874365143   106.3207698476   107.6541031810   105.1541031810    97.6541031810    92.6541031810    92.8207698476    92.4874365143    93.4874365143    93.8207698476    90.6541031810    86.3207698476    81.8207698476    79.9874365143    74.3007217322    67.7806736167    60.4272921679    54.9072440524    49.5538626036    44.7004811548    41.0137663726    36.1603849238 
   -2.1446490526    -0.5310915399     4.0824659728     8.3626901521    12.6429143315    17.0898051775    20.0366960235    21.9835868695    22.8169202028    23.6502535362    26.3169202028    26.3169202028    26.8169202028    27.9835868695    25.4835868695    23.4835868695    21.9835868695    20.1502535362    15.8169202028    13.8169202028    10.3169202028     7.4835868695     6.4835868695     5.4835868695     2.4835868695     0.4835868695    -1.0164131305     0.3169202028     3.3169202028     2.8169202028     3.8169202028     5.3169202028     7.3169202028     9.8169202028    12.6502535362    12.1502535362    12.1502535362    11.3169202028    10.1502535362    10.6502535362    11.8169202028    12.8169202028    15.1502535362    16.6502535362    14.6502535362    12.6502535362    12.1502535362    12.6502535362    11.9835868695     7.4835868695     1.9835868695    -1.5164131305    -4.8497464638    -8.5164131305   -13.1830797972   -17.1830797972   -16.6830797972   -15.1830797972   -14.5164131305   -15.8497464638   -16.3497464638   -12.5164131305    -8.6830797972    -7.1830797972    -5.0164131305    -1.8497464638     0.8169202028     2.8169202028     5.4835868695     7.3169202028     9.8169202028    10.8169202028     9.8169202028     8.9835868695     6.6502535362     4.8169202028     4.1502535362     3.9835868695     2.3169202028     0.9835868695    -3.0164131305    -4.8497464638    -4.1830797972    -3.3497464638    -1.5164131305     0.9835868695     3.6502535362     7.4835868695     9.8169202028     7.3169202028     4.6502535362     5.8169202028     6.8169202028     3.6502535362    -0.5164131305    -3.3497464638    -3.0164131305    -2.5164131305    -5.8497464638    -9.1830797972   -12.1830797972   -13.0164131305   -13.0164131305   -16.8497464638   -20.8497464638   -21.8497464638   -19.3497464638   -17.6830797972   -14.6830797972   -13.6830797972   -11.1830797972    -9.5164131305    -9.0164131305    -8.3497464638    -6.1830797972    -4.1830797972    -2.1830797972     1.3169202028     4.3169202028     6.3169202028     3.9835868695    -0.5164131305    -4.6830797972   -11.3497464638   -13.1830797972   -10.0164131305    -4.1830797972    -1.0164131305     0.8169202028    -1.6830797972    -1.3497464638     1.9835868695     5.4835868695     2.4835868695    -1.0164131305    -2.3497464638     0.1502535362     7.1502535362    12.1502535362    13.3169202028     7.4835868695    -0.0164131305   -12.6830797972   -28.5164131305   -46.5164131305   -62.8497464638   -65.8497464638   -63.6830797972   -72.0164131305   -98.1830797972  -128.3497464638  -136.1830797972  -159.6830797972  -220.5164131305  -269.8497464638  -292.1830797972  -322.5164131305  -367.8497464638  -413.8497464638  -442.1830797972  -419.8497464638  -350.3497464638  -299.8497464638  -262.8497464638  -250.8497464638  -237.1830797972  -206.8497464638  -250.0164131305  -233.5164131305  -114.6830797972    -4.6830797972    14.1502535362    56.1502535362   155.8169202028   281.1502535362   345.1502535362   362.1502535362   331.1502535362   259.9835868695   164.4835868695   129.9835868695   158.1502535362   139.3169202028   139.4835868695   119.3169202028     7.1502535362  -133.6830797972  -196.8497464638  -273.6830797972  -377.6830797972  -495.6830797972  -573.6830797972  -703.3497464638  -803.6830797972  -852.1830797972  -879.0164131305  -940.1830797972 -1051.1830797972 -1132.5164131305 -1149.8497464638 -1170.6830797972 -1157.8497464638 -1134.1830797972 -1110.1830797972 -1085.6830797972 -1083.8497464638 -1093.3497464638 -1087.0164131305 -1039.1830797972  -991.8497464638  -953.0164131305  -902.3497464638  -846.1830797972  -787.6830797972  -727.6830797972  -698.5164131305  -682.8497464638  -672.5164131305  -651.8497464638  -639.0164131305  -628.5164131305  -605.1830797972  -573.5164131305  -546.3497464638  -511.0164131305  -511.8497464638  -518.1830797972  -522.5164131305  -527.8497464638  -538.8497464638  -535.3497464638  -521.6830797972  -510.5164131305  -502.8497464638  -479.3497464638  -449.0164131305  -407.6830797972  -359.3497464638  -314.1830797972  -269.8497464638  -225.6830797972  -173.8497464638  -118.5164131305   -71.0164131305   -21.0164131305    43.3169202028    99.9835868695   147.1502535362   194.3169202028   241.9835868695   276.8169202028   302.8169202028   320.4835868695   326.6502535362   331.8169202028   337.1502535362   344.8169202028   355.8169202028   369.1502535362   385.6502535362   400.9835868695   413.6502535362   421.6502535362   430.3169202028   434.8169202028   437.6502535362   442.9835868695   449.6502535362   453.1502535362   453.9835868695   452.8169202028   450.9835868695   447.8169202028   441.8169202028   436.8169202028   431.1502535362   428.4835868695   423.6502535362   418.3169202028   409.4835868695   401.4835868695   394.8169202028   387.9835868695   381.4835868695   373.8169202028   366.8169202028   359.3169202028   355.6502535362   354.3169202028   352.8169202028   349.6502535362   345.6502535362   341.3169202028   338.3169202028   335.9835868695   335.4835868695   335.4835868695   339.3169202028   340.6502535362   338.3169202028   337.3169202028   338.9835868695   346.8169202028   351.6502535362   354.9835868695   358.1502535362   360.9835868695   364.4835868695   366.1502535362   365.1502535362   365.1502535362   366.4835868695   366.3169202028   362.4835868695   358.3169202028   357.6502535362   356.6502535362   353.4835868695   345.3169202028   335.9835868695   325.1502535362   319.1502535362   315.4835868695   310.8169202028   307.1502535362   303.6502535362   300.1502535362   296.9835868695   295.9835868695   294.3169202028   293.8169202028   292.9835868695   291.9835868695   291.1502535362   289.1502535362   289.3169202028   292.4835868695   291.4835868695   286.8169202028   282.3169202028   277.3169202028   275.8169202028   274.6502535362   272.1502535362   269.4835868695   268.4835868695   268.6502535362   268.1502535362   267.1502535362   264.4835868695   265.6502535362   262.4835868695   258.3169202028   255.1502535362   253.8169202028   253.8169202028   254.6502535362   254.3169202028   255.1502535362   253.9835868695   254.1502535362   253.4835868695   253.4835868695   251.8169202028   249.8169202028   249.6502535362   247.4835868695   245.9835868695   245.8169202028   245.4835868695   247.3169202028   247.1502535362   245.1502535362   240.3169202028   233.1502535362   227.6502535362   221.8169202028   215.1502535362   205.9835868695   198.1502535362   190.9835868695   182.3169202028   172.9835868695   166.9835868695   159.3169202028   153.9835868695   146.4835868695   143.1502535362   139.3169202028   135.9835868695   134.6502535362   133.9835868695   132.8169202028   131.6502535362   130.9835868695   131.9835868695   134.8169202028   140.1502535362   146.8169202028   151.8169202028   154.1502535362   153.8169202028   155.9835868695   157.9835868695   158.9835868695   161.3169202028   161.8169202028   162.4835868695   161.6502535362   163.4835868695   165.4835868695   162.9835868695   158.9835868695   154.6502535362   149.9835868695   147.3169202028   148.6502535362   151.1502535362   150.4835868695   145.6502535362   142.6502535362   141.8169202028   142.4835868695   144.9835868695   145.8169202028   143.6502535362   144.8169202028   149.4835868695   153.8169202028   156.6502535362   157.6502535362   157.1502535362   154.9835868695   153.8169202028   153.6502535362   154.1502535362   156.9835868695   159.1502535362   157.4835868695   150.4835868695   146.1502535362   141.1502535362   136.1502535362   129.6502535362   124.3169202028   116.4835868695   110.4835868695   107.1502535362   107.4835868695   101.8169202028    93.1502535362    86.9835868695    79.4835868695    72.8169202028    68.1502535362    64.3169202028    58.8169202028    53.9835868695    46.9835868695    41.3169202028    36.6502535362    36.9835868695    38.8169202028    35.3169202028    26.6502535362    21.3169202028    21.1502535362    24.6502535362    26.6502535362    23.9835868695    20.6502535362    19.6502535362    20.6502535362    22.0366960235    23.0898051775    23.3095809981    22.5293568188    20.2491326394    15.8022417934    14.3553509474    14.7417934347 
  -15.3325326928   -17.2768881772   -19.3879103283   -21.4989324793   -23.9432879637   -25.2209767814   -24.4986655991   -21.2763544168   -17.2763544168   -14.7763544168   -13.1096877502   -11.2763544168    -8.6096877502    -6.2763544168    -4.7763544168    -2.4430210835    -0.2763544168     3.7236455832     8.8903122498    12.5569789165    18.7236455832    22.5569789165    24.2236455832    24.5569789165    27.2236455832    29.3903122498    30.5569789165    34.3903122498    37.0569789165    39.0569789165    38.2236455832    39.0569789165    40.7236455832    41.7236455832    40.0569789165    39.2236455832    35.7236455832    33.7236455832    32.7236455832    29.7236455832    25.3903122498    21.7236455832    18.7236455832    13.5569789165     9.7236455832     7.3903122498     7.8903122498     7.3903122498     6.7236455832     3.7236455832     2.3903122498     2.5569789165     3.7236455832     5.0569789165     4.5569789165     5.8903122498     9.0569789165    14.2236455832    22.0569789165    28.2236455832    32.5569789165    35.5569789165    40.2236455832    43.3903122498    44.0569789165    45.2236455832    45.2236455832    45.2236455832    46.0569789165    46.2236455832    45.2236455832    43.0569789165    40.5569789165    38.0569789165    33.2236455832    30.8903122498    28.2236455832    26.2236455832    22.3903122498    19.5569789165    15.8903122498    12.7236455832    10.8903122498     9.5569789165     6.7236455832     2.5569789165     2.5569789165     4.3903122498     6.2236455832     4.8903122498     3.2236455832    -1.2763544168    -5.7763544168    -9.4430210835   -12.1096877502   -15.4430210835   -15.4430210835   -15.6096877502   -13.4430210835   -14.1096877502   -13.6096877502   -10.9430210835    -9.9430210835   -11.7763544168   -16.4430210835   -21.4430210835   -25.2763544168   -25.6096877502   -24.1096877502   -20.6096877502   -20.1096877502   -19.7763544168   -19.7763544168   -17.7763544168   -19.2763544168   -19.7763544168   -19.6096877502   -19.6096877502   -20.7763544168   -21.9430210835   -21.2763544168   -18.6096877502   -15.4430210835   -12.4430210835   -10.9430210835   -13.2763544168   -13.2763544168   -11.4430210835    -8.6096877502   -12.7763544168   -25.4430210835   -33.1096877502   -37.2763544168   -38.7763544168   -48.1096877502   -62.2763544168   -74.1096877502   -89.2763544168  -116.6096877502  -144.2763544168  -164.6096877502  -196.1096877502  -223.2763544168  -223.2763544168  -231.1096877502  -223.2763544168  -207.9430210835  -216.1096877502  -243.2763544168  -264.6096877502  -279.1096877502  -302.6096877502  -356.2763544168  -384.1096877502  -360.1096877502  -332.4430210835  -292.2763544168  -227.6096877502  -162.9430210835  -100.2763544168   -58.6096877502   -78.4430210835   -33.1096877502    53.2236455832    94.2236455832   141.0569789165   213.3903122498   262.0569789165   337.2236455832   418.5569789165   447.0569789165   424.2236455832   405.5569789165   350.7236455832   281.8903122498   177.3903122498   104.3903122498   123.3903122498    52.3903122498   -58.1096877502  -129.4430210835  -224.9430210835  -325.4430210835  -392.4430210835  -468.4430210835  -591.9430210835  -716.6096877502  -772.7763544168  -833.2763544168  -879.9430210835  -934.6096877502  -975.9430210835 -1009.1096877502 -1076.7763544168 -1125.2763544168 -1157.9430210835 -1170.7763544168 -1178.4430210835 -1202.7763544168 -1217.2763544168 -1217.7763544168 -1195.2763544168 -1158.2763544168 -1144.2763544168 -1144.7763544168 -1128.7763544168 -1091.9430210835 -1055.7763544168 -1028.2763544168 -1002.2763544168  -966.7763544168  -933.6096877502  -903.7763544168  -856.7763544168  -801.6096877502  -744.9430210835  -698.2763544168  -653.4430210835  -601.2763544168  -543.1096877502  -486.6096877502  -430.9430210835  -374.7763544168  -319.7763544168  -267.6096877502  -221.7763544168  -174.6096877502  -122.1096877502   -63.4430210835   -13.6096877502    28.8903122498    64.3903122498   111.0569789165   159.3903122498   201.3903122498   237.7236455832   271.7236455832   304.8903122498   335.0569789165   362.7236455832   388.7236455832   420.0569789165   449.2236455832   476.5569789165   500.2236455832   518.5569789165   535.0569789165   555.0569789165   571.5569789165   583.7236455832   593.3903122498   602.7236455832   611.0569789165   613.8903122498   614.5569789165   617.7236455832   621.8903122498   620.7236455832   616.3903122498   610.2236455832   603.3903122498   595.3903122498   586.7236455832   576.7236455832   564.2236455832   552.7236455832   541.2236455832   532.3903122498   523.8903122498   514.8903122498   506.7236455832   497.5569789165   486.3903122498   477.7236455832   468.7236455832   461.2236455832   453.2236455832   449.7236455832   445.8903122498   443.0569789165   439.0569789165   432.7236455832   427.2236455832   420.8903122498   414.0569789165   407.2236455832   400.3903122498   394.2236455832   390.3903122498   385.5569789165   383.3903122498   381.5569789165   381.0569789165   378.0569789165   374.5569789165   367.0569789165   361.5569789165   358.8903122498   358.0569789165   353.3903122498   345.2236455832   336.7236455832   330.3903122498   322.5569789165   313.2236455832   302.5569789165   290.5569789165   278.3903122498   267.2236455832   257.2236455832   246.2236455832   239.3903122498   235.2236455832   230.3903122498   220.2236455832   212.3903122498   207.5569789165   203.3903122498   196.8903122498   192.2236455832   187.5569789165   184.7236455832   185.5569789165   186.7236455832   186.3903122498   184.8903122498   183.2236455832   180.0569789165   177.0569789165   173.3903122498   170.3903122498   167.0569789165   164.0569789165   162.7236455832   160.8903122498   158.8903122498   159.2236455832   159.5569789165   156.5569789165   152.3903122498   149.5569789165   148.5569789165   151.8903122498   157.3903122498   160.0569789165   159.5569789165   159.7236455832   162.3903122498   165.3903122498   167.8903122498   172.3903122498   174.8903122498   177.8903122498   180.2236455832   181.2236455832   181.3903122498   182.0569789165   182.0569789165   181.3903122498   176.3903122498   171.0569789165   167.7236455832   166.2236455832   162.7236455832   159.7236455832   155.7236455832   151.0569789165   151.2236455832   145.7236455832   138.7236455832   131.2236455832   126.3903122498   122.3903122498   116.8903122498   107.5569789165   100.7236455832    98.0569789165    95.8903122498    94.3903122498    91.8903122498    87.8903122498    85.7236455832    83.2236455832    76.2236455832    73.0569789165    74.0569789165    79.8903122498    85.7236455832    90.0569789165    93.0569789165    96.0569789165    98.8903122498    97.5569789165    97.0569789165    94.8903122498    93.5569789165    93.7236455832    94.3903122498    95.3903122498    94.5569789165    91.3903122498    84.2236455832    74.2236455832    64.2236455832    54.2236455832    47.0569789165    38.3903122498    32.0569789165    29.0569789165    23.8903122498    17.7236455832    11.7236455832     5.5569789165    -0.6096877502    -6.4430210835    -8.9430210835    -7.2763544168    -2.6096877502     1.2236455832     4.0569789165     7.3903122498    10.2236455832    17.2236455832    21.7236455832    24.3903122498    29.2236455832    36.0569789165    41.7236455832    47.0569789165    51.3903122498    53.8903122498    54.0569789165    55.5569789165    55.8903122498    57.0569789165    58.0569789165    56.3903122498    52.3903122498    48.0569789165    43.0569789165    37.7236455832    33.0569789165    27.8903122498    25.2236455832    22.7236455832    18.5569789165    15.0569789165    13.7236455832    10.0569789165     6.3903122498     2.5569789165    -1.9430210835    -0.9430210835     1.0569789165     1.7236455832     1.0569789165     2.8903122498     4.5569789165     7.0569789165     7.0569789165     5.7236455832     7.2236455832     8.0569789165     7.5569789165     6.3903122498     2.2236455832    -1.6096877502    -2.7763544168    -5.2763544168    -6.4430210835    -5.7763544168    -4.1096877502    -3.9430210835    -5.4986655991    -7.3876434481    -7.4432879637    -6.4989324793    -7.5545769949    -7.9435548439    -8.3325326928    -8.5548438751 
  -17.0280673617   -18.2534081796   -19.8120823309   -21.3707564822   -23.5960973002   -24.8214381181   -26.2134456028   -27.6054530874   -28.2721197541   -26.6054530874   -23.7721197541   -22.7721197541   -19.6054530874   -15.2721197541   -10.7721197541    -6.6054530874    -5.1054530874    -4.1054530874    -3.7721197541    -2.7721197541    -0.6054530874     2.3945469126     4.5612135793     4.7278802459     6.5612135793     7.3945469126     8.5612135793     8.7278802459     8.3945469126     7.8945469126     7.7278802459     7.0612135793     6.0612135793     6.5612135793     8.2278802459     8.2278802459     5.8945469126     1.7278802459    -0.2721197541    -0.2721197541    -0.1054530874    -3.2721197541    -7.4387864207    -6.9387864207    -5.7721197541    -3.2721197541    -2.4387864207    -2.9387864207    -3.9387864207    -3.4387864207    -2.9387864207    -1.4387864207     1.3945469126     4.2278802459     6.0612135793     9.2278802459     9.7278802459    11.3945469126    14.0612135793    16.3945469126    17.3945469126    15.2278802459    12.8945469126    13.3945469126    16.3945469126    17.5612135793    16.5612135793    14.5612135793    13.3945469126    12.3945469126    11.5612135793     8.3945469126     5.0612135793     3.0612135793     1.5612135793    -1.4387864207    -7.4387864207   -11.4387864207   -12.7721197541   -13.9387864207   -15.9387864207   -15.6054530874   -14.6054530874   -11.7721197541    -8.1054530874    -2.7721197541     1.2278802459     2.8945469126     5.3945469126    10.5612135793    13.0612135793    14.8945469126    20.3945469126    25.7278802459    28.7278802459    30.8945469126    32.5612135793    32.7278802459    33.8945469126    33.5612135793    31.5612135793    23.7278802459    16.3945469126    11.2278802459     7.5612135793     6.3945469126    12.2278802459    15.3945469126    16.5612135793    16.2278802459    15.5612135793    16.5612135793    16.5612135793    13.5612135793     9.2278802459     6.7278802459     5.0612135793     7.8945469126    11.5612135793    21.5612135793    32.3945469126    35.0612135793    26.7278802459    16.3945469126     9.3945469126     4.3945469126    -3.4387864207   -15.7721197541   -16.1054530874    -6.7721197541    -0.1054530874     5.7278802459    10.3945469126     1.7278802459   -15.4387864207   -19.9387864207   -10.4387864207    -6.7721197541   -17.7721197541   -21.1054530874   -17.4387864207    -0.9387864207    24.7278802459    43.2278802459    46.3945469126    56.0612135793    70.7278802459    66.7278802459    60.2278802459    52.0612135793    58.8945469126    61.7278802459    55.0612135793    50.3945469126    65.0612135793    79.8945469126    86.8945469126    69.8945469126    44.8945469126    -6.2721197541   -54.7721197541   -79.9387864207   -83.9387864207  -107.1054530874  -104.4387864207   -59.6054530874   -49.2721197541   -47.4387864207   -51.9387864207   -92.6054530874  -137.9387864207  -138.7721197541  -150.1054530874  -166.4387864207  -184.9387864207  -182.7721197541  -150.4387864207  -144.2721197541  -179.2721197541  -219.1054530874  -291.9387864207  -393.4387864207  -438.7721197541  -481.7721197541  -551.1054530874  -598.6054530874  -627.7721197541  -703.1054530874  -758.9387864207  -811.4387864207  -868.7721197541  -901.9387864207  -952.1054530874 -1023.7721197541 -1082.9387864207 -1105.2721197541 -1111.6054530874 -1116.1054530874 -1147.7721197541 -1190.6054530874 -1203.9387864207 -1198.6054530874 -1197.6054530874 -1190.4387864207 -1194.7721197541 -1196.6054530874 -1184.1054530874 -1173.4387864207 -1167.4387864207 -1143.1054530874 -1101.6054530874 -1055.7721197541 -1015.1054530874  -969.2721197541  -920.9387864207  -866.7721197541  -824.4387864207  -775.6054530874  -721.2721197541  -666.9387864207  -605.9387864207  -535.7721197541  -466.1054530874  -402.2721197541  -343.7721197541  -290.2721197541  -243.9387864207  -195.2721197541  -147.4387864207  -103.6054530874   -61.7721197541   -21.9387864207    27.2278802459    74.3945469126   112.2278802459   143.7278802459   170.8945469126   197.7278802459   220.8945469126   244.7278802459   270.3945469126   294.7278802459   315.2278802459   336.5612135793   360.5612135793   382.3945469126   403.3945469126   424.5612135793   445.5612135793   464.0612135793   480.0612135793   495.0612135793   510.3945469126   526.7278802459   541.2278802459   549.7278802459   555.7278802459   560.5612135793   565.7278802459   568.7278802459   566.8945469126   565.3945469126   562.8945469126   561.3945469126   557.3945469126   554.3945469126   546.8945469126   538.7278802459   528.5612135793   519.0612135793   510.5612135793   501.7278802459   490.5612135793   481.8945469126   475.2278802459   467.7278802459   461.8945469126   456.8945469126   454.0612135793   449.2278802459   445.8945469126   439.8945469126   434.7278802459   429.7278802459   425.5612135793   421.7278802459   414.5612135793   408.3945469126   404.2278802459   397.5612135793   390.5612135793   384.3945469126   377.5612135793   369.5612135793   359.3945469126   349.8945469126   340.7278802459   333.0612135793   326.2278802459   321.3945469126   318.7278802459   314.0612135793   310.5612135793   311.7278802459   314.3945469126   317.0612135793   318.5612135793   319.3945469126   320.0612135793   320.7278802459   320.3945469126   318.2278802459   314.2278802459   310.3945469126   305.3945469126   299.3945469126   290.8945469126   284.2278802459   279.3945469126   272.7278802459   262.0612135793   251.5612135793   239.7278802459   228.3945469126   221.3945469126   213.3945469126   204.8945469126   197.0612135793   194.0612135793   191.7278802459   190.0612135793   187.5612135793   185.8945469126   183.2278802459   181.0612135793   178.0612135793   175.5612135793   170.8945469126   168.2278802459   166.5612135793   165.8945469126   166.0612135793   166.3945469126   167.3945469126   165.3945469126   160.5612135793   158.3945469126   158.2278802459   160.5612135793   163.3945469126   165.7278802459   165.2278802459   164.3945469126   166.2278802459   166.3945469126   165.2278802459   160.7278802459   158.3945469126   159.0612135793   159.3945469126   159.2278802459   159.0612135793   158.0612135793   156.8945469126   153.3945469126   148.3945469126   144.0612135793   139.7278802459   136.0612135793   132.8945469126   129.7278802459   126.8945469126   123.0612135793   120.7278802459   118.0612135793   118.7278802459   118.2278802459   119.7278802459   119.7278802459   119.5612135793   117.7278802459   115.2278802459   111.7278802459   115.3945469126   122.7278802459   127.5612135793   132.5612135793   135.8945469126   142.5612135793   146.7278802459   149.7278802459   148.5612135793   150.2278802459   151.8945469126   155.8945469126   158.3945469126   163.0612135793   167.7278802459   171.2278802459   171.0612135793   167.7278802459   165.0612135793   161.3945469126   161.2278802459   161.2278802459   159.0612135793   153.8945469126   149.2278802459   143.8945469126   139.2278802459   133.3945469126   128.5612135793   121.5612135793   116.0612135793   114.7278802459   114.5612135793   112.3945469126   110.8945469126   111.0612135793   108.0612135793   103.0612135793   102.2278802459   102.7278802459   103.3945469126   104.2278802459   104.0612135793   102.2278802459   100.2278802459    98.8945469126    98.0612135793    94.3945469126    88.5612135793    84.3945469126    79.8945469126    75.5612135793    74.3945469126    73.8945469126    70.2278802459    67.0612135793    65.0612135793    63.2278802459    61.2278802459    59.8945469126    59.3945469126    59.0612135793    57.7278802459    55.8945469126    53.8945469126    52.5612135793    52.7278802459    52.2278802459    52.2278802459    51.2278802459    53.3945469126    56.0612135793    57.8945469126    57.8945469126    57.7278802459    57.2278802459    58.7278802459    59.8945469126    58.7278802459    57.7278802459    59.5612135793    63.2278802459    68.7278802459    71.5612135793    70.8945469126    70.7278802459    68.5612135793    66.8945469126    65.2278802459    64.0612135793    60.4532210639    58.0118952152    52.5705693665    47.4625768511    44.8545843357    42.9132584870    39.1385993050    34.3639401230 
   -4.6227648786    -5.9882572725    -5.8537496664    -4.3859087270    -3.7514011209    -4.1168935148    -3.8157192421    -1.0145449693     0.1521216974     0.6521216974     1.3187883640     2.1521216974     2.6521216974     5.8187883640     6.6521216974     8.4854550307     9.9854550307     8.8187883640     5.6521216974    -0.0145449693    -4.3478783026    -3.5145449693    -2.0145449693    -3.3478783026    -1.5145449693     0.4854550307     1.6521216974     3.9854550307     6.4854550307     3.9854550307     2.6521216974     5.3187883640    10.6521216974    17.4854550307    22.9854550307    28.9854550307    33.3187883640    32.8187883640    31.6521216974    29.4854550307    25.9854550307    21.6521216974    17.8187883640    14.3187883640     9.8187883640     8.3187883640     8.6521216974     7.9854550307     4.8187883640     1.6521216974    -2.5145449693    -4.0145449693    -2.8478783026    -2.5145449693    -2.0145449693    -0.8478783026    -0.0145449693     2.4854550307     5.3187883640     7.6521216974     9.9854550307     9.1521216974     6.8187883640     3.6521216974     0.4854550307    -3.0145449693    -2.0145449693    -2.1812116360    -2.6812116360    -2.3478783026    -4.6812116360    -5.0145449693    -6.8478783026   -10.1812116360   -12.5145449693   -15.5145449693   -20.5145449693   -20.3478783026   -18.0145449693   -13.1812116360    -6.5145449693    -0.0145449693     4.3187883640     4.9854550307     2.3187883640    -0.0145449693     0.8187883640    -1.1812116360    -0.6812116360    -1.3478783026    -2.3478783026    -2.0145449693     1.8187883640     3.3187883640     4.3187883640     1.9854550307    -1.3478783026    -4.6812116360    -5.6812116360    -3.3478783026    -1.8478783026    -1.6812116360    -4.6812116360    -5.8478783026    -7.1812116360    -7.0145449693    -9.0145449693    -9.1812116360   -10.3478783026   -11.3478783026   -12.8478783026   -13.8478783026   -14.5145449693   -16.3478783026   -20.3478783026   -25.3478783026   -25.3478783026   -21.6812116360   -17.8478783026   -17.3478783026   -17.1812116360   -14.5145449693    -8.1812116360    -5.1812116360    -4.5145449693    -5.6812116360    -7.8478783026    -9.5145449693   -11.8478783026   -16.6812116360   -23.6812116360   -32.0145449693   -47.1812116360   -69.3478783026   -85.3478783026   -87.1812116360   -84.0145449693   -83.6812116360   -81.0145449693   -84.6812116360   -86.5145449693   -80.1812116360   -69.0145449693   -60.6812116360   -71.8478783026   -72.6812116360   -69.1812116360   -59.3478783026   -46.5145449693   -48.6812116360   -67.3478783026  -103.1812116360  -114.6812116360   -87.1812116360   -51.1812116360   -22.0145449693   -29.8478783026   -84.5145449693  -147.8478783026  -179.0145449693  -159.8478783026  -145.6812116360  -139.3478783026  -162.8478783026  -164.0145449693  -129.6812116360   -50.1812116360    47.9854550307    85.3187883640    58.9854550307    15.8187883640     2.6521216974    38.9854550307   105.3187883640   144.6521216974   118.6521216974    83.1521216974    60.1521216974   -14.6812116360   -49.0145449693   -81.6812116360  -148.5145449693  -266.5145449693  -362.6812116360  -436.5145449693  -538.3478783026  -612.1812116360  -687.8478783026  -772.8478783026  -877.1812116360  -939.1812116360  -992.8478783026 -1106.8478783026 -1200.1812116360 -1206.0145449693 -1223.0145449693 -1263.0145449693 -1281.3478783026 -1268.1812116360 -1307.3478783026 -1337.3478783026 -1310.5145449693 -1301.3478783026 -1301.0145449693 -1297.8478783026 -1273.1812116360 -1261.0145449693 -1230.1812116360 -1157.8478783026 -1113.3478783026 -1093.5145449693 -1072.5145449693 -1043.1812116360 -1024.3478783026 -1001.1812116360  -947.8478783026  -900.5145449693  -856.3478783026  -808.8478783026  -767.6812116360  -727.3478783026  -673.1812116360  -609.6812116360  -528.1812116360  -442.0145449693  -358.8478783026  -273.1812116360  -192.0145449693  -125.3478783026   -61.3478783026    -5.8478783026    43.6521216974   101.4854550307   159.4854550307   209.1521216974   258.3187883640   307.6521216974   349.6521216974   384.1521216974   409.1521216974   426.3187883640   437.9854550307   445.1521216974   456.4854550307   474.3187883640   503.4854550307   524.3187883640   536.6521216974   545.8187883640   556.8187883640   565.9854550307   576.9854550307   580.8187883640   583.3187883640   586.9854550307   588.3187883640   587.8187883640   587.3187883640   583.4854550307   574.8187883640   565.1521216974   553.6521216974   542.4854550307   532.6521216974   521.8187883640   507.8187883640   497.3187883640   489.3187883640   477.8187883640   462.9854550307   446.6521216974   433.6521216974   423.4854550307   413.8187883640   401.8187883640   392.9854550307   384.8187883640   377.4854550307   365.9854550307   354.4854550307   344.9854550307   339.8187883640   334.6521216974   325.9854550307   323.1521216974   324.9854550307   327.1521216974   330.4854550307   331.3187883640   330.6521216974   334.6521216974   335.8187883640   338.3187883640   338.8187883640   340.3187883640   339.4854550307   337.9854550307   333.6521216974   326.6521216974   317.6521216974   307.3187883640   296.4854550307   286.4854550307   274.3187883640   265.3187883640   258.4854550307   249.8187883640   241.1521216974   230.4854550307   220.3187883640   212.3187883640   209.6521216974   208.1521216974   205.6521216974   202.8187883640   202.6521216974   203.6521216974   204.9854550307   203.3187883640   199.6521216974   193.6521216974   188.1521216974   183.3187883640   178.8187883640   175.3187883640   173.4854550307   170.9854550307   164.9854550307   159.3187883640   154.6521216974   149.6521216974   142.9854550307   136.9854550307   132.4854550307   131.1521216974   130.1521216974   130.6521216974   131.3187883640   132.8187883640   136.6521216974   140.8187883640   144.9854550307   148.1521216974   151.9854550307   154.9854550307   157.6521216974   162.4854550307   167.4854550307   172.1521216974   177.3187883640   182.3187883640   187.6521216974   192.3187883640   196.6521216974   198.3187883640   194.8187883640   192.9854550307   191.9854550307   192.4854550307   193.3187883640   193.6521216974   192.6521216974   190.3187883640   187.8187883640   187.1521216974   182.8187883640   180.1521216974   177.4854550307   173.4854550307   167.9854550307   165.1521216974   165.1521216974   164.6521216974   163.1521216974   159.8187883640   155.9854550307   153.1521216974   154.8187883640   156.1521216974   160.1521216974   160.3187883640   162.6521216974   163.9854550307   164.3187883640   164.9854550307   166.6521216974   166.4854550307   167.8187883640   167.9854550307   166.3187883640   166.3187883640   167.1521216974   168.1521216974   165.4854550307   162.9854550307   159.6521216974   157.3187883640   153.4854550307   147.8187883640   141.6521216974   138.8187883640   136.4854550307   135.8187883640   131.9854550307   127.3187883640   123.1521216974   118.8187883640   116.9854550307   114.6521216974   111.6521216974   109.3187883640   106.9854550307   104.9854550307   105.6521216974   105.4854550307   106.9854550307   105.9854550307   104.1521216974   101.3187883640   101.1521216974   100.8187883640   101.6521216974   101.1521216974    97.1521216974    91.9854550307    88.3187883640    84.3187883640    80.4854550307    73.1521216974    65.1521216974    59.6521216974    60.6521216974    61.4854550307    63.3187883640    63.3187883640    61.4854550307    60.9854550307    62.3187883640    65.8187883640    67.6521216974    69.9854550307    72.9854550307    74.4854550307    72.8187883640    73.6521216974    73.8187883640    75.4854550307    73.6521216974    72.1521216974    70.3187883640    70.3187883640    71.9854550307    74.3187883640    73.3187883640    71.3187883640    70.9854550307    70.8187883640    69.3187883640    69.9854550307    77.3187883640    84.6521216974    91.3187883640    94.6521216974    93.3187883640    89.9854550307    88.4854550307    86.6521216974    83.4854550307    78.9854550307    78.1521216974    77.1521216974    76.4854550307    74.1521216974    70.0176140913    64.5497731519    54.5819322124    45.2807579397    37.3129170003    30.6784093942    27.3772351214    26.2427275153 
  -15.7050974113   -14.5427008273   -15.0469709101   -16.3845743261   -15.5555110755   -13.0597811583   -11.5640512410   -13.4016546571   -14.2349879904   -15.2349879904   -18.4016546571   -18.5683213237   -18.9016546571   -16.0683213237   -11.9016546571    -9.4016546571    -7.4016546571    -8.2349879904    -8.4016546571    -7.7349879904    -6.7349879904    -6.9016546571    -6.2349879904    -3.2349879904     2.0983453429     9.2650120096    14.5983453429    15.5983453429    15.7650120096    13.4316786763    11.5983453429    12.7650120096    13.4316786763    14.5983453429    17.0983453429    18.4316786763    16.9316786763    13.2650120096     7.2650120096     3.5983453429     1.0983453429    -4.7349879904    -7.0683213237    -6.0683213237    -5.4016546571    -2.2349879904     0.2650120096    -1.9016546571    -4.4016546571    -6.5683213237    -9.2349879904   -10.2349879904   -13.0683213237   -13.9016546571   -13.2349879904   -10.5683213237   -10.4016546571    -8.7349879904   -11.4016546571   -16.0683213237   -19.0683213237   -20.0683213237   -22.0683213237   -24.9016546571   -26.4016546571   -27.2349879904   -28.5683213237   -29.4016546571   -29.2349879904   -27.5683213237   -24.5683213237   -26.2349879904   -27.7349879904   -26.5683213237   -21.0683213237   -14.0683213237    -9.2349879904    -9.0683213237    -9.2349879904    -7.0683213237    -5.0683213237    -1.9016546571     0.5983453429     2.2650120096     3.0983453429     0.0983453429    -3.2349879904    -6.7349879904    -8.5683213237   -12.2349879904   -16.5683213237   -21.0683213237   -23.9016546571   -25.5683213237   -25.2349879904   -25.7349879904   -27.0683213237   -31.4016546571   -33.2349879904   -35.4016546571   -33.7349879904   -27.7349879904   -23.4016546571   -17.2349879904   -13.5683213237    -9.2349879904    -5.2349879904    -2.7349879904    -1.2349879904     1.4316786763     2.7650120096     5.2650120096     6.2650120096     6.7650120096     7.0983453429     9.4316786763    11.7650120096    12.4316786763    13.7650120096    14.7650120096    16.5983453429    20.0983453429    19.7650120096    16.2650120096    14.7650120096    13.2650120096    14.7650120096    16.5983453429    19.9316786763    23.7650120096    24.4316786763    22.7650120096    19.2650120096    11.5983453429     8.2650120096     9.4316786763     8.7650120096     0.9316786763    -9.4016546571   -23.4016546571   -43.7349879904   -50.4016546571   -70.0683213237   -97.9016546571  -112.2349879904  -122.9016546571  -139.0683213237  -173.0683213237  -225.2349879904  -254.5683213237  -243.9016546571  -231.2349879904  -222.7349879904  -231.9016546571  -282.7349879904  -336.9016546571  -312.9016546571  -246.5683213237  -157.7349879904  -110.4016546571  -131.5683213237  -181.0683213237  -199.0683213237  -145.4016546571   -27.9016546571    40.7650120096     9.5983453429    28.9316786763    95.2650120096   166.0983453429   240.0983453429   314.5983453429   316.5983453429   259.2650120096   197.0983453429   147.0983453429   171.4316786763   238.2650120096   268.0983453429   218.0983453429   146.9316786763    93.4316786763    77.2650120096     5.5983453429   -90.2349879904  -182.0683213237  -238.7349879904  -288.4016546571  -336.9016546571  -427.5683213237  -490.5683213237  -506.5683213237  -547.4016546571  -591.4016546571  -627.5683213237  -649.0683213237  -691.2349879904  -729.7349879904  -758.4016546571  -784.9016546571  -793.4016546571  -782.5683213237  -785.4016546571  -764.9016546571  -756.0683213237  -708.9016546571  -700.5683213237  -692.7349879904  -693.2349879904  -701.4016546571  -696.7349879904  -677.7349879904  -661.4016546571  -643.4016546571  -614.7349879904  -584.7349879904  -576.9016546571  -575.0683213237  -560.4016546571  -576.4016546571  -586.0683213237  -591.4016546571  -591.5683213237  -586.9016546571  -554.5683213237  -526.0683213237  -511.5683213237  -496.9016546571  -486.9016546571  -474.7349879904  -469.2349879904  -468.5683213237  -477.4016546571  -461.4016546571  -423.7349879904  -371.0683213237  -309.5683213237  -241.2349879904  -171.2349879904  -119.0683213237   -83.7349879904   -44.7349879904     0.0983453429    41.4316786763    84.9316786763   136.2650120096   197.7650120096   259.4316786763   318.7650120096   355.0983453429   378.7650120096   396.5983453429   409.0983453429   417.9316786763   422.9316786763   430.5983453429   439.4316786763   442.4316786763   447.5983453429   450.5983453429   452.4316786763   452.7650120096   447.0983453429   437.2650120096   429.0983453429   421.9316786763   413.7650120096   405.2650120096   397.0983453429   389.0983453429   381.7650120096   375.4316786763   368.7650120096   363.5983453429   355.4316786763   349.5983453429   346.2650120096   339.4316786763   330.2650120096   327.2650120096   324.4316786763   319.2650120096   316.4316786763   311.9316786763   305.7650120096   299.5983453429   293.7650120096   288.0983453429   284.0983453429   280.0983453429   276.2650120096   272.0983453429   268.7650120096   265.7650120096   269.2650120096   273.9316786763   274.7650120096   275.0983453429   271.2650120096   266.5983453429   263.9316786763   261.0983453429   257.7650120096   254.0983453429   251.9316786763   248.0983453429   247.0983453429   246.0983453429   243.4316786763   242.2650120096   239.0983453429   228.9316786763   219.2650120096   212.4316786763   207.2650120096   204.7650120096   199.5983453429   192.7650120096   185.2650120096   178.4316786763   171.5983453429   167.0983453429   158.4316786763   149.9316786763   144.2650120096   139.2650120096   132.7650120096   129.4316786763   128.0983453429   125.0983453429   122.0983453429   120.0983453429   121.0983453429   122.7650120096   125.2650120096   126.0983453429   126.0983453429   125.5983453429   126.0983453429   128.2650120096   129.9316786763   131.4316786763   131.5983453429   129.7650120096   126.5983453429   123.4316786763   122.7650120096   123.7650120096   124.0983453429   124.7650120096   125.5983453429   126.5983453429   126.5983453429   124.7650120096   126.0983453429   129.5983453429   131.2650120096   131.0983453429   131.5983453429   134.2650120096   138.9316786763   142.0983453429   144.4316786763   143.5983453429   143.5983453429   144.2650120096   143.4316786763   143.5983453429   145.9316786763   147.4316786763   145.5983453429   144.0983453429   143.0983453429   141.2650120096   140.9316786763   140.5983453429   138.0983453429   136.7650120096   135.7650120096   136.5983453429   138.2650120096   138.4316786763   138.5983453429   134.7650120096   129.2650120096   126.7650120096   128.0983453429   126.7650120096   123.9316786763   126.4316786763   127.2650120096   127.2650120096   125.9316786763   123.4316786763   119.7650120096   115.2650120096   110.2650120096   105.2650120096   100.4316786763   100.0983453429   101.7650120096   101.2650120096    97.0983453429    92.7650120096    91.0983453429    85.7650120096    82.5983453429    79.4316786763    76.7650120096    73.9316786763    73.7650120096    74.9316786763    71.2650120096    67.9316786763    66.0983453429    65.2650120096    61.7650120096    59.4316786763    59.0983453429    60.0983453429    60.5983453429    60.9316786763    60.5983453429    59.9316786763    61.0983453429    62.4316786763    61.9316786763    59.4316786763    60.2650120096    62.0983453429    65.5983453429    67.5983453429    69.5983453429    68.4316786763    68.9316786763    68.0983453429    67.2650120096    67.7650120096    68.4316786763    69.7650120096    70.0983453429    70.5983453429    70.9316786763    73.4316786763    73.9316786763    73.5983453429    70.5983453429    64.5983453429    59.7650120096    56.7650120096    57.5983453429    58.5983453429    57.4316786763    54.4316786763    51.2650120096    50.2650120096    50.4316786763    51.9316786763    53.7650120096    53.0983453429    53.7650120096    55.0983453429    55.5983453429    58.0983453429    58.9316786763    62.4316786763    60.5983453429    59.5983453429    58.9316786763    55.2650120096    53.0983453429    49.0983453429    43.5983453429    38.2692820923    32.6068855084    28.4444889245    24.6154256739    19.9530290899    17.1239658393    14.7949025887    14.1325060048 
    9.6642647451    13.9973311983    18.1637309848    16.9967974380    14.3298638911    12.9962636776    10.8293301308     8.8290632506     7.6623965839     7.4957299173     8.3290632506     9.4957299173     8.6623965839     5.3290632506     3.6623965839     1.8290632506     2.3290632506    -1.8376034161    -7.5042700827    -9.3376034161    -8.5042700827    -7.8376034161    -5.3376034161    -5.0042700827    -5.5042700827    -3.5042700827    -3.1709367494    -6.6709367494   -10.3376034161   -11.6709367494   -13.0042700827   -11.5042700827   -12.1709367494   -14.8376034161   -16.3376034161   -16.1709367494   -16.6709367494   -18.6709367494   -19.6709367494   -18.6709367494   -17.8376034161   -21.3376034161   -25.1709367494   -27.3376034161   -27.0042700827   -25.1709367494   -23.0042700827   -23.5042700827   -23.3376034161   -19.8376034161   -15.3376034161   -10.5042700827    -7.1709367494    -3.6709367494    -2.6709367494    -1.6709367494    -0.3376034161     5.1623965839     9.3290632506    12.1623965839    15.4957299173    18.4957299173    21.4957299173    23.8290632506    24.8290632506    24.9957299173    25.3290632506    23.1623965839    19.8290632506    15.9957299173    13.8290632506    11.1623965839     9.9957299173     8.8290632506     8.4957299173     8.3290632506     7.4957299173     3.1623965839    -2.1709367494    -7.3376034161   -10.0042700827   -13.8376034161   -18.0042700827   -20.5042700827   -20.1709367494   -18.6709367494   -16.1709367494   -13.3376034161   -12.3376034161   -15.1709367494   -17.5042700827   -20.0042700827   -22.1709367494   -22.8376034161   -22.6709367494   -18.0042700827   -15.5042700827   -14.1709367494   -15.6709367494   -16.6709367494   -16.3376034161   -14.8376034161   -15.1709367494   -17.0042700827   -16.8376034161   -16.1709367494   -17.1709367494   -17.8376034161   -19.6709367494   -21.8376034161   -26.0042700827   -30.8376034161   -30.3376034161   -31.0042700827   -22.5042700827   -12.8376034161    -6.0042700827    -4.1709367494    -5.1709367494    -4.3376034161    -4.1709367494    -3.1709367494     0.1623965839     4.9957299173    10.6623965839    16.6623965839    20.8290632506    22.1623965839    17.9957299173    15.9957299173    11.4957299173     4.8290632506    -6.8376034161   -29.1709367494   -53.5042700827   -55.8376034161   -57.1709367494   -57.1709367494   -60.0042700827   -70.8376034161   -75.8376034161   -84.6709367494   -98.1709367494  -112.1709367494  -141.0042700827  -156.1709367494  -144.5042700827  -122.0042700827   -94.1709367494   -49.3376034161    -9.1709367494    -1.0042700827    18.9957299173    29.9957299173    15.8290632506     5.3290632506     1.8290632506     8.6623965839     5.1623965839    -9.0042700827   -22.5042700827   -19.6709367494     8.6623965839    26.9957299173    -9.6709367494   -80.0042700827   -77.0042700827   -64.3376034161   -80.6709367494   -81.6709367494   -42.3376034161   -17.5042700827    21.4957299173    34.4957299173    36.6623965839    59.1623965839    91.9957299173    97.6623965839    45.9957299173   -37.3376034161   -73.1709367494   -74.0042700827  -119.3376034161  -141.0042700827  -165.3376034161  -245.8376034161  -328.5042700827  -374.5042700827  -451.6709367494  -543.5042700827  -603.0042700827  -658.5042700827  -690.1709367494  -707.6709367494  -729.6709367494  -725.1709367494  -729.1709367494  -754.1709367494  -796.3376034161  -855.3376034161  -893.8376034161  -879.8376034161  -875.1709367494  -889.6709367494  -899.1709367494  -872.1709367494  -840.0042700827  -817.8376034161  -813.5042700827  -820.6709367494  -821.6709367494  -817.1709367494  -795.1709367494  -758.8376034161  -718.5042700827  -678.3376034161  -638.8376034161  -595.8376034161  -551.6709367494  -505.8376034161  -460.0042700827  -415.6709367494  -381.8376034161  -353.6709367494  -318.6709367494  -282.3376034161  -244.3376034161  -206.1709367494  -170.3376034161  -135.0042700827  -103.5042700827   -74.6709367494   -41.1709367494   -14.1709367494     8.4957299173    30.9957299173    54.3290632506    80.4957299173   109.9957299173   142.6623965839   169.4957299173   193.9957299173   218.3290632506   242.6623965839   266.4957299173   293.4957299173   319.3290632506   340.9957299173   357.3290632506   373.6623965839   389.4957299173   401.8290632506   412.1623965839   418.4957299173   423.4957299173   429.3290632506   432.3290632506   431.6623965839   426.8290632506   418.6623965839   410.8290632506   403.1623965839   394.4957299173   386.9957299173   376.6623965839   365.3290632506   355.8290632506   348.4957299173   340.6623965839   334.3290632506   328.1623965839   320.6623965839   313.3290632506   303.1623965839   295.9957299173   291.4957299173   288.1623965839   281.8290632506   274.3290632506   267.1623965839   263.4957299173   261.3290632506   257.8290632506   254.4957299173   251.9957299173   248.9957299173   245.4957299173   241.4957299173   237.1623965839   237.1623965839   234.4957299173   231.9957299173   230.8290632506   232.4957299173   236.6623965839   238.1623965839   238.4957299173   234.6623965839   231.3290632506   227.4957299173   225.6623965839   224.6623965839   223.9957299173   221.8290632506   221.1623965839   217.1623965839   215.3290632506   212.9957299173   209.1623965839   204.8290632506   196.9957299173   192.6623965839   187.6623965839   184.1623965839   178.4957299173   172.8290632506   165.8290632506   158.1623965839   148.8290632506   141.3290632506   132.9957299173   127.9957299173   122.9957299173   117.4957299173   113.8290632506   110.1623965839   108.4957299173   105.4957299173   100.4957299173    94.9957299173    92.3290632506    90.3290632506    87.8290632506    86.6623965839    87.1623965839    90.4957299173    94.1623965839    97.3290632506    95.3290632506    95.3290632506    94.8290632506    95.4957299173    95.3290632506    92.8290632506    93.9957299173    98.1623965839   102.9957299173   107.3290632506   110.6623965839   112.8290632506   117.4957299173   120.4957299173   123.8290632506   125.1623965839   131.6623965839   136.9957299173   142.3290632506   146.3290632506   151.1623965839   157.6623965839   163.6623965839   165.8290632506   165.4957299173   163.6623965839   160.1623965839   157.3290632506   149.8290632506   142.6623965839   138.6623965839   136.3290632506   131.3290632506   125.1623965839   118.4957299173   109.8290632506   101.9957299173    95.9957299173    88.8290632506    84.1623965839    80.1623965839    76.6623965839    76.6623965839    77.1623965839    79.3290632506    80.3290632506    78.6623965839    78.1623965839    80.8290632506    84.4957299173    86.3290632506    90.6623965839    93.6623965839    95.1623965839    95.4957299173    94.9957299173    96.8290632506   100.6623965839   102.4957299173   101.8290632506   101.8290632506   102.4957299173   103.4957299173   102.3290632506    99.4957299173    94.9957299173    91.4957299173    87.4957299173    85.1623965839    83.4957299173    81.4957299173    80.8290632506    78.4957299173    74.6623965839    73.8290632506    71.8290632506    70.4957299173    70.4957299173    71.9957299173    73.8290632506    74.8290632506    77.4957299173    80.6623965839    86.9957299173    90.8290632506    89.9957299173    90.8290632506    89.8290632506    89.3290632506    87.9957299173    83.1623965839    80.8290632506    79.9957299173    77.3290632506    70.6623965839    67.4957299173    64.1623965839    61.1623965839    58.4957299173    52.8290632506    47.4957299173    46.8290632506    47.1623965839    48.4957299173    47.6623965839    49.1623965839    51.4957299173    55.6623965839    56.8290632506    55.9957299173    56.3290632506    52.8290632506    52.1623965839    53.3290632506    51.8290632506    52.1623965839    54.4957299173    56.1623965839    55.6623965839    54.4957299173    54.6623965839    54.4957299173    54.8290632506    55.4957299173    56.1623965839    57.1623965839    56.9957299173    57.8290632506    56.8290632506    54.6623965839    53.1623965839    48.9957299173    44.9957299173    40.6623965839    37.9957299173    34.4959967974    31.4962636776    28.1631972244    24.4967974380    19.3303976515    14.9973311983    12.1642647451    10.4978649586 
    3.3971176942     2.4967974380     1.5964771817    -0.3038430745    -2.2041633307    -3.6044835869    -3.8381371764    -2.9051240993    -4.2384574326    -3.5717907659    -3.0717907659    -3.0717907659    -4.4051240993    -5.7384574326    -7.7384574326    -9.4051240993   -10.0717907659    -8.4051240993    -5.7384574326    -3.0717907659    -0.9051240993     0.9282092341     3.9282092341     4.5948759007     6.5948759007     5.5948759007     4.9282092341     5.9282092341     3.0948759007    -0.0717907659    -2.4051240993    -2.2384574326    -2.4051240993    -4.7384574326    -8.5717907659   -12.0717907659   -12.4051240993   -11.0717907659   -12.7384574326   -15.2384574326   -16.7384574326   -16.2384574326   -15.5717907659   -15.4051240993   -11.0717907659    -5.2384574326     0.5948759007     3.9282092341     6.0948759007     6.7615425674     8.4282092341    11.5948759007    12.9282092341    11.9282092341    12.0948759007    12.9282092341    13.2615425674    13.2615425674    13.2615425674    11.0948759007     7.7615425674     3.9282092341     0.2615425674    -3.0717907659    -6.0717907659    -5.4051240993    -3.4051240993    -0.7384574326     2.5948759007     7.2615425674     8.5948759007    10.2615425674    12.4282092341    13.9282092341    14.4282092341    14.5948759007    15.5948759007    18.4282092341    19.0948759007    18.0948759007    18.0948759007    18.0948759007    16.2615425674    11.9282092341     4.4282092341    -3.5717907659    -7.7384574326   -10.7384574326   -16.4051240993   -24.5717907659   -25.9051240993   -32.5717907659   -46.4051240993   -61.0717907659   -82.0717907659   -97.2384574326  -121.2384574326  -140.9051240993  -156.2384574326  -169.0717907659  -167.2384574326  -154.9051240993  -143.7384574326  -133.2384574326  -123.5717907659  -118.4051240993  -111.2384574326   -92.9051240993   -65.4051240993   -41.4051240993   -14.9051240993     2.7615425674    26.5948759007    46.9282092341    65.5948759007    83.5948759007    84.9282092341    70.7615425674    59.4282092341    49.2615425674    41.0948759007    42.0948759007    36.2615425674    25.9282092341    14.9282092341     0.0948759007    -9.9051240993   -15.5717907659   -13.5717907659   -12.2384574326   -14.2384574326   -17.4051240993   -16.7384574326   -13.7384574326   -13.5717907659   -14.5717907659    -7.7384574326    -4.7384574326    -7.2384574326    -5.0717907659    -4.0717907659    -0.4051240993    -7.0717907659   -27.5717907659   -60.0717907659   -95.0717907659  -121.4051240993  -154.5717907659  -211.9051240993  -253.4051240993  -254.9051240993  -263.2384574326  -294.9051240993  -307.9051240993  -314.9051240993  -326.4051240993  -359.9051240993  -397.9051240993  -381.5717907659  -318.5717907659  -225.7384574326  -165.5717907659  -132.5717907659  -112.4051240993   -46.4051240993    41.4282092341    73.7615425674   100.7615425674   166.5948759007   245.4282092341   285.0948759007   299.9282092341   338.4282092341   417.4282092341   413.5948759007   357.0948759007   318.7615425674   264.4282092341   214.9282092341   219.0948759007   171.7615425674    28.2615425674   -57.9051240993  -118.2384574326  -198.5717907659  -343.7384574326  -484.4051240993  -566.4051240993  -640.7384574326  -747.5717907659  -859.9051240993  -960.5717907659 -1109.2384574326 -1171.0717907659 -1192.0717907659 -1242.9051240993 -1273.4051240993 -1248.5717907659 -1275.5717907659 -1312.4051240993 -1351.0717907659 -1349.9051240993 -1308.4051240993 -1300.4051240993 -1304.4051240993 -1308.0717907659 -1271.2384574326 -1227.4051240993 -1172.4051240993 -1159.2384574326 -1176.9051240993 -1193.7384574326 -1191.7384574326 -1206.9051240993 -1228.0717907659 -1231.9051240993 -1198.0717907659 -1137.7384574326 -1065.7384574326  -992.0717907659  -936.4051240993  -894.2384574326  -821.9051240993  -737.7384574326  -649.7384574326  -548.9051240993  -446.4051240993  -362.5717907659  -283.4051240993  -165.5717907659   -22.7384574326    97.7615425674   182.5948759007   240.7615425674   280.5948759007   319.5948759007   380.7615425674   455.5948759007   503.0948759007   543.4282092341   575.7615425674   600.9282092341   629.4282092341   673.5948759007   711.5948759007   733.9282092341   747.9282092341   761.9282092341   771.9282092341   776.4282092341   779.2615425674   783.9282092341   786.5948759007   786.9282092341   788.2615425674   782.4282092341   778.9282092341   771.7615425674   761.9282092341   750.4282092341   737.0948759007   724.5948759007   709.4282092341   693.4282092341   676.0948759007   658.2615425674   640.5948759007   621.5948759007   599.4282092341   577.7615425674   556.0948759007   538.9282092341   519.9282092341   503.7615425674   485.5948759007   466.5948759007   451.5948759007   436.2615425674   423.4282092341   411.4282092341   402.7615425674   395.2615425674   391.2615425674   386.4282092341   383.0948759007   381.4282092341   383.0948759007   382.5948759007   379.9282092341   370.2615425674   363.7615425674   364.0948759007   366.2615425674   366.9282092341   363.2615425674   358.9282092341   352.5948759007   344.5948759007   335.2615425674   326.7615425674   317.9282092341   310.0948759007   299.5948759007   287.4282092341   275.7615425674   267.7615425674   263.4282092341   255.4282092341   245.2615425674   234.4282092341   226.0948759007   219.9282092341   216.4282092341   214.5948759007   211.0948759007   204.0948759007   201.5948759007   197.2615425674   192.7615425674   188.7615425674   184.5948759007   184.5948759007   183.5948759007   178.9282092341   171.7615425674   165.7615425674   162.9282092341   159.9282092341   155.9282092341   151.7615425674   148.4282092341   149.2615425674   147.0948759007   146.2615425674   143.2615425674   142.5948759007   142.5948759007   144.7615425674   144.4282092341   146.7615425674   148.0948759007   151.7615425674   154.2615425674   156.7615425674   158.5948759007   160.4282092341   160.9282092341   158.0948759007   156.7615425674   155.7615425674   159.5948759007   163.5948759007   167.7615425674   167.4282092341   165.7615425674   162.5948759007   161.9282092341   159.4282092341   155.0948759007   151.2615425674   148.7615425674   148.0948759007   150.2615425674   156.4282092341   160.7615425674   162.7615425674   162.4282092341   162.7615425674   161.4282092341   159.5948759007   159.2615425674   160.4282092341   161.0948759007   159.5948759007   158.7615425674   157.4282092341   156.9282092341   155.5948759007   149.7615425674   140.7615425674   134.7615425674   128.4282092341   120.9282092341   111.5948759007   102.9282092341    96.7615425674    93.5948759007    89.7615425674    87.9282092341    85.9282092341    84.0948759007    83.9282092341    82.7615425674    80.0948759007    79.0948759007    79.4282092341    79.2615425674    81.7615425674    84.5948759007    86.7615425674    88.4282092341    90.4282092341    90.5948759007    90.0948759007    88.9282092341    89.9282092341    90.7615425674    91.9282092341    91.4282092341    91.2615425674    89.5948759007    86.5948759007    82.0948759007    73.2615425674    63.2615425674    56.7615425674    52.4282092341    45.0948759007    37.5948759007    29.4282092341    22.0948759007    15.9282092341    10.9282092341     3.7615425674    -1.2384574326    -5.9051240993    -6.2384574326    -3.9051240993    -4.7384574326    -2.9051240993     1.5948759007     4.7615425674     7.0948759007    11.7615425674    15.0948759007    21.5948759007    26.4282092341    29.5948759007    29.9282092341    29.2615425674    28.2615425674    29.2615425674    29.0948759007    25.0948759007    22.4282092341    19.7615425674    17.7615425674    14.0948759007    11.0948759007     5.7615425674     0.2615425674    -5.5717907659   -10.5717907659   -15.7384574326   -20.2384574326   -23.4051240993   -25.7384574326   -27.7384574326   -31.4051240993   -34.5717907659   -35.4051240993   -33.7384574326   -31.7384574326   -28.7384574326   -26.4051240993   -22.9051240993   -19.2384574326   -16.7384574326   -13.5717907659    -9.9051240993    -1.7384574326     7.4282092341    14.9282092341    15.1618628236    16.3955164131    18.9625033360    21.1961569255    21.4298105151    19.6634641046    18.3971176942    17.2974379504 
   -4.9624431970    -3.3656776263    -1.9355787223    -2.1721464849    -1.4087142475     1.0213846565     4.4514835605     6.2149157979     8.7149157979     9.0482491312     8.0482491312     8.7149157979    10.5482491312     9.8815824646     9.7149157979     8.3815824646     5.3815824646     1.3815824646    -0.9517508688    -0.2850842021    -0.1184175354    -2.1184175354    -6.7850842021    -7.7850842021    -8.7850842021    -7.4517508688    -7.2850842021    -7.9517508688    -5.4517508688     0.5482491312     4.0482491312     5.8815824646     8.2149157979    12.5482491312    17.0482491312    20.0482491312    20.8815824646    20.2149157979    21.7149157979    20.3815824646    18.2149157979    13.0482491312    11.0482491312    11.3815824646    10.7149157979     7.8815824646     7.2149157979     8.8815824646    10.7149157979    10.0482491312     7.3815824646     3.7149157979     0.8815824646     0.0482491312    -0.4517508688    -0.4517508688     1.5482491312     5.2149157979     8.0482491312     9.7149157979     9.2149157979     7.2149157979     5.2149157979     4.5482491312     6.3815824646     9.5482491312    11.3815824646    14.3815824646    21.0482491312    27.8815824646    31.3815824646    35.7149157979    38.5482491312    42.3815824646    47.0482491312    48.7149157979    49.8815824646    51.7149157979    54.2149157979    54.2149157979    51.5482491312    46.0482491312    42.7149157979    39.3815824646    33.5482491312    25.7149157979    19.8815824646    14.3815824646    10.8815824646     6.7149157979     0.8815824646    -4.1184175354    -6.2850842021    -5.9517508688    -6.2850842021    -6.1184175354    -6.4517508688    -1.7850842021     1.5482491312     0.8815824646    -0.9517508688    -1.9517508688    -5.6184175354    -7.6184175354    -9.2850842021   -11.1184175354   -11.7850842021    -9.6184175354   -10.7850842021   -14.2850842021   -18.1184175354   -21.7850842021   -22.7850842021   -24.2850842021   -27.9517508688   -27.6184175354   -28.4517508688   -29.4517508688   -24.2850842021   -21.2850842021   -20.7850842021   -18.2850842021   -17.4517508688   -19.6184175354   -23.1184175354   -21.7850842021   -17.9517508688   -10.1184175354    -5.6184175354    -6.7850842021   -17.7850842021   -24.6184175354   -26.7850842021   -27.2850842021   -26.7850842021   -34.6184175354   -54.7850842021   -85.2850842021  -118.2850842021  -151.2850842021  -177.1184175354  -189.7850842021  -193.7850842021  -204.4517508688  -209.2850842021  -208.1184175354  -211.6184175354  -213.4517508688  -227.2850842021  -242.2850842021  -271.1184175354  -270.1184175354  -221.4517508688  -146.4517508688   -84.7850842021   -32.2850842021    -6.7850842021     0.0482491312    -0.1184175354   -23.9517508688   -81.1184175354   -76.1184175354   -35.4517508688   -62.6184175354   -67.1184175354   -17.9517508688    15.8815824646    41.0482491312    36.5482491312    16.7149157979     0.7149157979   -35.9517508688   -37.2850842021   -23.9517508688    -6.4517508688    23.5482491312    80.5482491312    38.8815824646   -37.7850842021    -8.6184175354     9.0482491312   -59.1184175354  -104.4517508688  -159.2850842021  -227.2850842021  -327.1184175354  -405.2850842021  -414.1184175354  -457.4517508688  -529.6184175354  -631.7850842021  -707.9517508688  -778.4517508688  -802.2850842021  -799.9517508688  -829.6184175354  -872.2850842021  -898.2850842021  -915.7850842021  -932.7850842021  -939.7850842021  -919.9517508688  -904.6184175354  -923.7850842021  -918.2850842021  -893.7850842021  -852.6184175354  -824.2850842021  -793.2850842021  -765.9517508688  -744.1184175354  -734.2850842021  -707.4517508688  -661.4517508688  -623.6184175354  -582.2850842021  -541.6184175354  -500.6184175354  -464.7850842021  -429.6184175354  -401.4517508688  -371.2850842021  -333.4517508688  -285.9517508688  -236.2850842021  -195.9517508688  -162.6184175354  -125.6184175354   -89.6184175354   -52.2850842021    -9.4517508688    30.2149157979    72.2149157979   113.7149157979   156.5482491312   199.5482491312   248.0482491312   293.2149157979   337.3815824646   373.5482491312   399.7149157979   424.8815824646   455.2149157979   483.8815824646   508.2149157979   527.7149157979   542.7149157979   553.0482491312   560.0482491312   566.0482491312   571.5482491312   575.0482491312   576.7149157979   577.2149157979   576.2149157979   574.0482491312   571.3815824646   566.7149157979   558.0482491312   545.7149157979   532.7149157979   518.8815824646   504.5482491312   491.0482491312   475.8815824646   463.5482491312   450.7149157979   434.7149157979   420.3815824646   404.8815824646   387.5482491312   370.7149157979   357.7149157979   347.2149157979   340.7149157979   334.5482491312   325.5482491312   317.8815824646   313.2149157979   309.0482491312   307.0482491312   302.5482491312   298.0482491312   295.5482491312   291.8815824646   288.8815824646   286.7149157979   284.3815824646   278.3815824646   272.8815824646   265.0482491312   259.7149157979   258.0482491312   256.7149157979   253.0482491312   245.7149157979   236.5482491312   230.5482491312   228.2149157979   223.8815824646   218.7149157979   212.3815824646   207.2149157979   202.5482491312   197.2149157979   192.7149157979   187.5482491312   179.7149157979   171.8815824646   163.7149157979   155.5482491312   147.8815824646   139.8815824646   130.3815824646   118.5482491312   109.0482491312    99.0482491312    91.8815824646    84.7149157979    76.0482491312    68.5482491312    58.2149157979    49.7149157979    43.5482491312    37.7149157979    33.2149157979    28.8815824646    28.0482491312    30.2149157979    31.2149157979    30.2149157979    29.2149157979    29.8815824646    30.8815824646    31.7149157979    33.2149157979    36.3815824646    43.8815824646    53.5482491312    62.3815824646    70.3815824646    75.5482491312    81.2149157979    86.3815824646    90.3815824646    95.8815824646   101.8815824646   108.8815824646   114.7149157979   119.8815824646   125.3815824646   130.5482491312   134.0482491312   136.0482491312   134.0482491312   130.7149157979   125.2149157979   123.0482491312   120.5482491312   116.3815824646   111.0482491312   106.8815824646   104.7149157979   103.7149157979   103.7149157979   100.2149157979    94.5482491312    91.8815824646    91.2149157979    89.0482491312    86.2149157979    84.7149157979    84.0482491312    80.2149157979    77.8815824646    76.7149157979    76.2149157979    73.0482491312    69.3815824646    66.3815824646    64.2149157979    64.5482491312    66.0482491312    64.7149157979    64.0482491312    63.5482491312    63.3815824646    61.7149157979    61.5482491312    61.5482491312    59.5482491312    56.0482491312    52.8815824646    53.0482491312    54.5482491312    54.2149157979    53.0482491312    50.8815824646    49.7149157979    47.0482491312    42.7149157979    38.2149157979    34.0482491312    32.3815824646    32.2149157979    33.0482491312    33.8815824646    35.3815824646    38.2149157979    39.7149157979    38.7149157979    36.8815824646    33.3815824646    34.3815824646    35.3815824646    37.3815824646    38.3815824646    39.7149157979    43.2149157979    46.5482491312    47.3815824646    46.0482491312    46.2149157979    48.5482491312    49.8815824646    50.0482491312    50.3815824646    48.3815824646    50.8815824646    51.3815824646    52.7149157979    53.3815824646    54.5482491312    55.7149157979    54.2149157979    52.5482491312    53.3815824646    54.3815824646    56.7149157979    56.8815824646    54.3815824646    51.3815824646    48.8815824646    51.2149157979    51.7149157979    48.8815824646    44.2149157979    41.0482491312    39.2149157979    38.5482491312    38.0482491312    35.2149157979    31.0482491312    29.0482491312    25.3815824646    24.3815824646    23.5482491312    25.5482491312    29.2149157979    30.2149157979    29.5482491312    30.0482491312    30.3815824646    31.5482491312    30.8815824646    28.3815824646    26.5482491312    27.0482491312    28.7149157979    29.2149157979    27.5482491312    22.7149157979    20.0482491312    17.2848168939    13.0213846565     9.2579524191     6.4945201818     4.7310879444     3.3009890404     0.8708901363    -0.5592087677 
    5.6280406309     4.3274525528     3.5268644747     1.2262763967    -1.7409783480    -5.7082330928    -9.6754878375   -12.1427425822   -15.4760759155   -19.4760759155   -21.4760759155   -23.8094092489   -26.6427425822   -29.8094092489   -33.3094092489   -35.6427425822   -36.3094092489   -34.3094092489   -33.1427425822   -30.9760759155   -28.9760759155   -25.9760759155   -23.1427425822   -21.8094092489   -20.3094092489   -17.1427425822   -14.4760759155   -11.4760759155    -9.6427425822    -8.9760759155    -7.6427425822    -6.8094092489    -6.4760759155    -6.6427425822    -7.4760759155    -7.4760759155    -6.8094092489    -4.6427425822    -2.1427425822     0.3572574178     3.3572574178     5.0239240845     6.8572574178     7.0239240845     7.6905907511    10.1905907511    12.0239240845    16.0239240845    20.6905907511    23.0239240845    25.5239240845    26.5239240845    27.6905907511    27.5239240845    27.6905907511    27.8572574178    26.8572574178    28.0239240845    27.5239240845    26.6905907511    25.1905907511    24.8572574178    25.1905907511    22.1905907511    16.5239240845    13.0239240845    10.0239240845     7.6905907511     5.0239240845     2.0239240845    -0.8094092489    -3.9760759155    -5.3094092489    -5.9760759155    -6.6427425822    -8.4760759155    -9.4760759155   -11.6427425822   -13.3094092489   -13.4760759155   -12.6427425822   -11.8094092489   -10.9760759155    -8.1427425822    -6.8094092489    -6.3094092489    -6.4760759155    -5.4760759155    -6.8094092489   -10.1427425822   -12.8094092489   -11.1427425822    -8.6427425822    -9.6427425822   -10.1427425822   -10.6427425822    -8.4760759155    -6.8094092489    -6.6427425822    -9.1427425822   -11.9760759155   -15.4760759155   -20.1427425822   -25.1427425822   -30.1427425822   -36.3094092489   -41.1427425822   -51.4760759155   -63.4760759155   -70.9760759155   -77.4760759155   -81.6427425822   -84.9760759155   -88.3094092489   -83.6427425822   -74.9760759155   -61.9760759155   -45.6427425822   -31.8094092489   -21.1427425822    -9.9760759155    -1.1427425822    -1.9760759155    -9.3094092489   -31.9760759155   -58.8094092489   -74.4760759155   -66.8094092489   -62.8094092489   -63.9760759155   -74.6427425822   -98.6427425822  -133.1427425822  -150.8094092489  -167.6427425822  -201.9760759155  -190.8094092489  -152.4760759155  -115.3094092489   -91.6427425822   -84.9760759155   -65.8094092489   -41.3094092489   -41.3094092489   -35.4760759155   -70.6427425822   -99.3094092489   -91.6427425822  -107.1427425822  -174.4760759155  -176.3094092489   -84.8094092489   -46.6427425822   -59.8094092489   -61.8094092489   -65.9760759155   -67.4760759155   -47.9760759155   -19.9760759155    12.0239240845     6.8572574178    21.8572574178    53.6905907511    42.6905907511    36.8572574178    99.5239240845   105.8572574178    -8.1427425822  -109.1427425822  -172.3094092489  -222.3094092489  -267.9760759155  -282.8094092489  -337.4760759155  -398.6427425822  -453.6427425822  -495.1427425822  -505.6427425822  -547.3094092489  -571.4760759155  -575.9760759155  -616.9760759155  -659.3094092489  -648.6427425822  -641.4760759155  -647.9760759155  -670.3094092489  -668.1427425822  -663.3094092489  -649.9760759155  -660.9760759155  -686.3094092489  -696.6427425822  -709.1427425822  -705.9760759155  -702.9760759155  -693.9760759155  -689.8094092489  -696.6427425822  -712.8094092489  -724.4760759155  -717.8094092489  -689.1427425822  -652.9760759155  -620.4760759155  -593.4760759155  -565.9760759155  -545.1427425822  -518.4760759155  -491.3094092489  -458.1427425822  -416.8094092489  -375.6427425822  -330.3094092489  -271.4760759155  -205.3094092489  -147.1427425822  -102.3094092489   -75.6427425822   -57.1427425822   -35.6427425822    -6.3094092489    29.5239240845    74.6905907511   117.5239240845   161.3572574178   194.3572574178   219.8572574178   246.1905907511   275.5239240845   297.8572574178   319.1905907511   343.0239240845   367.3572574178   389.6905907511   409.6905907511   429.0239240845   444.3572574178   453.6905907511   463.6905907511   475.1905907511   481.3572574178   488.0239240845   493.6905907511   497.5239240845   500.0239240845   502.1905907511   499.5239240845   495.8572574178   490.8572574178   482.8572574178   474.8572574178   464.3572574178   454.5239240845   445.8572574178   435.8572574178   424.1905907511   412.1905907511   397.8572574178   380.1905907511   365.5239240845   352.5239240845   341.3572574178   333.1905907511   327.5239240845   321.1905907511   315.6905907511   310.1905907511   305.8572574178   302.8572574178   301.1905907511   300.6905907511   300.3572574178   301.3572574178   303.8572574178   308.6905907511   312.6905907511   316.5239240845   316.8572574178   317.8572574178   315.0239240845   312.3572574178   311.0239240845   310.5239240845   308.6905907511   305.8572574178   301.0239240845   295.6905907511   291.3572574178   285.5239240845   280.5239240845   279.1905907511   277.3572574178   273.5239240845   270.8572574178   266.1905907511   264.8572574178   265.3572574178   266.0239240845   263.8572574178   260.1905907511   255.0239240845   254.3572574178   254.1905907511   252.1905907511   250.0239240845   246.8572574178   243.1905907511   238.0239240845   233.0239240845   227.8572574178   223.0239240845   215.3572574178   205.1905907511   194.0239240845   183.8572574178   176.8572574178   172.1905907511   166.3572574178   160.3572574178   155.0239240845   149.5239240845   143.8572574178   133.0239240845   123.5239240845   116.8572574178   112.6905907511   111.3572574178   111.6905907511   114.6905907511   118.3572574178   123.5239240845   130.0239240845   136.3572574178   140.8572574178   144.8572574178   147.6905907511   151.0239240845   152.5239240845   155.8572574178   159.3572574178   161.1905907511   161.0239240845   158.6905907511   153.0239240845   143.5239240845   133.0239240845   121.6905907511   108.1905907511    95.0239240845    82.5239240845    72.0239240845    62.5239240845    54.0239240845    47.3572574178    40.8572574178    35.3572574178    30.3572574178    24.1905907511    16.8572574178    12.3572574178    11.1905907511    12.3572574178    14.1905907511    14.0239240845    11.1905907511     9.6905907511     7.8572574178     6.5239240845     4.6905907511     3.0239240845     2.1905907511     1.0239240845    -1.6427425822    -3.4760759155    -4.6427425822    -4.6427425822    -6.1427425822    -8.1427425822    -9.3094092489    -8.3094092489    -5.9760759155    -3.8094092489    -3.8094092489    -5.6427425822    -7.3094092489    -6.4760759155    -5.4760759155    -4.3094092489    -1.3094092489     2.6905907511     6.6905907511    11.1905907511    16.0239240845    18.8572574178    19.5239240845    19.5239240845    20.6905907511    20.5239240845    21.5239240845    23.1905907511    26.3572574178    26.6905907511    26.8572574178    25.1905907511    24.6905907511    23.0239240845    19.6905907511    13.3572574178     7.0239240845     2.1905907511    -1.3094092489    -2.9760759155    -5.1427425822    -5.9760759155    -6.6427425822    -6.1427425822    -6.6427425822    -6.6427425822    -7.4760759155    -7.3094092489    -6.9760759155    -3.3094092489     2.5239240845    11.0239240845    19.6905907511    27.8572574178    35.0239240845    40.6905907511    45.3572574178    47.3572574178    49.8572574178    54.5239240845    58.5239240845    62.3572574178    66.6905907511    70.6905907511    73.6905907511    73.6905907511    71.0239240845    68.3572574178    67.8572574178    67.6905907511    67.0239240845    65.3572574178    64.8572574178    66.0239240845    65.5239240845    61.8572574178    57.8572574178    54.1905907511    51.6905907511    49.5239240845    46.1905907511    41.6905907511    40.1905907511    39.1905907511    36.3572574178    33.8572574178    31.8572574178    29.6905907511    27.1905907511    25.8572574178    25.1905907511    27.1905907511    28.8572574178    30.8572574178    34.3572574178    35.5239240845    35.1905907511    35.6905907511    37.0239240845    36.5239240845    33.6578454959    30.7917669072    28.2590216520    27.2262763967    26.1935311414    23.8274525528    21.6280406309    17.7619620422 
   -8.2449879711    -7.5499866346    -6.6883186314    -5.3266506282    -3.9649826250    -2.9366479551    -2.9083132852    -3.0466452820    -1.2133119487    -1.2133119487    -2.0466452820    -2.7133119487    -0.7133119487     2.7866880513     6.1200213847     8.1200213847     8.4533547180     6.7866880513     6.2866880513     5.7866880513     3.4533547180    -1.3799786153    -3.8799786153    -3.7133119487    -6.2133119487    -7.2133119487    -8.3799786153    -9.2133119487    -9.5466452820   -13.7133119487   -20.8799786153   -26.0466452820   -29.0466452820   -28.2133119487   -28.2133119487   -30.0466452820   -28.5466452820   -23.5466452820   -19.2133119487   -17.3799786153   -15.2133119487   -13.2133119487    -9.0466452820    -3.7133119487    -1.5466452820     0.7866880513     3.1200213847     6.7866880513    11.4533547180    10.4533547180     9.1200213847     9.9533547180     9.9533547180     8.6200213847     6.7866880513     3.7866880513     1.4533547180     2.6200213847     4.4533547180     4.6200213847     4.7866880513     6.1200213847     9.1200213847    10.2866880513     9.7866880513    10.6200213847    10.1200213847     9.2866880513     6.9533547180     2.7866880513    -1.3799786153    -5.0466452820    -7.2133119487   -15.0466452820   -21.8799786153   -26.3799786153   -35.0466452820   -43.3799786153   -49.3799786153   -55.5466452820   -55.0466452820   -51.0466452820   -46.3799786153   -44.7133119487   -41.5466452820   -35.8799786153   -33.7133119487   -28.8799786153   -23.5466452820   -15.8799786153   -10.7133119487    -7.2133119487     2.9533547180    12.2866880513    19.7866880513    27.7866880513    29.6200213847    27.2866880513    26.4533547180    26.2866880513    24.4533547180    21.2866880513    23.2866880513    24.6200213847    22.4533547180    22.1200213847    21.2866880513    19.7866880513    17.2866880513    15.2866880513    13.1200213847     9.9533547180     6.6200213847     4.2866880513     0.7866880513    -1.8799786153    -2.3799786153    -4.7133119487    -6.7133119487    -9.3799786153    -9.2133119487   -14.3799786153   -20.8799786153   -29.7133119487   -35.8799786153   -35.0466452820   -35.2133119487   -37.7133119487   -38.3799786153   -23.5466452820    -8.2133119487     2.6200213847     5.4533547180    12.6200213847    25.2866880513    30.7866880513    27.6200213847    25.6200213847    37.2866880513    51.4533547180    48.6200213847    41.6200213847    33.7866880513    29.4533547180    18.2866880513    -5.2133119487   -30.5466452820   -30.0466452820   -14.7133119487     5.9533547180     0.7866880513   -20.2133119487   -37.5466452820   -34.5466452820   -11.0466452820     8.9533547180     7.9533547180   -26.3799786153   -32.8799786153   -17.2133119487   -10.2133119487   -35.3799786153   -14.2133119487    -2.2133119487     1.1200213847   -39.0466452820   -47.3799786153   -44.0466452820   -42.3799786153   -45.0466452820   -77.2133119487  -123.8799786153  -136.0466452820  -139.2133119487  -143.3799786153  -122.0466452820  -102.8799786153   -69.0466452820   -92.0466452820  -163.3799786153  -215.3799786153  -221.2133119487  -255.0466452820  -258.0466452820  -286.8799786153  -344.0466452820  -398.3799786153  -409.0466452820  -419.0466452820  -414.2133119487  -414.8799786153  -472.8799786153  -530.8799786153  -557.0466452820  -583.5466452820  -571.3799786153  -570.5466452820  -585.2133119487  -599.2133119487  -621.2133119487  -621.3799786153  -598.7133119487  -560.3799786153  -541.5466452820  -527.5466452820  -511.5466452820  -515.3799786153  -508.3799786153  -485.7133119487  -478.8799786153  -460.3799786153  -441.8799786153  -428.5466452820  -409.3799786153  -373.3799786153  -351.0466452820  -321.2133119487  -298.7133119487  -292.8799786153  -295.2133119487  -290.3799786153  -281.8799786153  -273.2133119487  -264.3799786153  -258.3799786153  -248.5466452820  -232.8799786153  -216.5466452820  -200.2133119487  -180.0466452820  -160.8799786153  -141.7133119487  -120.5466452820  -100.3799786153   -81.3799786153   -59.0466452820   -38.2133119487   -16.7133119487     5.9533547180    27.7866880513    54.4533547180    77.2866880513    94.7866880513   110.4533547180   125.9533547180   141.7866880513   155.1200213847   169.2866880513   184.9533547180   201.9533547180   213.9533547180   225.1200213847   237.6200213847   251.7866880513   264.2866880513   277.1200213847   288.1200213847   295.1200213847   303.4533547180   310.4533547180   312.9533547180   309.4533547180   308.2866880513   307.7866880513   306.7866880513   305.1200213847   303.7866880513   303.6200213847   303.1200213847   302.2866880513   300.6200213847   296.1200213847   293.2866880513   293.7866880513   292.7866880513   292.1200213847   296.6200213847   301.1200213847   302.1200213847   302.9533547180   304.2866880513   305.6200213847   308.7866880513   310.4533547180   310.4533547180   307.9533547180   307.2866880513   308.4533547180   309.4533547180   309.2866880513   307.9533547180   308.9533547180   306.6200213847   305.7866880513   303.7866880513   301.6200213847   296.7866880513   292.4533547180   287.4533547180   281.4533547180   273.6200213847   267.4533547180   262.2866880513   256.6200213847   246.7866880513   234.2866880513   222.2866880513   209.2866880513   197.6200213847   184.7866880513   173.6200213847   165.9533547180   158.1200213847   147.9533547180   137.2866880513   127.7866880513   121.9533547180   117.6200213847   111.4533547180   107.4533547180   104.9533547180   105.1200213847   106.4533547180   106.6200213847   104.2866880513   103.6200213847   103.2866880513   100.1200213847    97.6200213847    96.1200213847    97.7866880513    99.4533547180    99.2866880513    97.4533547180    94.1200213847    90.2866880513    89.6200213847    90.4533547180    90.6200213847    90.4533547180    91.2866880513    91.7866880513    94.4533547180    97.9533547180    98.7866880513    99.7866880513   100.4533547180   101.7866880513   103.9533547180   104.7866880513   106.7866880513   107.9533547180   108.9533547180   106.4533547180   104.6200213847   103.2866880513   103.2866880513   104.6200213847   105.9533547180   107.6200213847   112.6200213847   118.7866880513   121.9533547180   122.9533547180   122.9533547180   123.4533547180   123.1200213847   121.7866880513   119.7866880513   120.2866880513   119.9533547180   118.9533547180   117.4533547180   116.2866880513   112.9533547180   106.2866880513   100.2866880513    92.9533547180    86.4533547180    81.2866880513    75.6200213847    67.9533547180    61.2866880513    57.4533547180    54.4533547180    51.9533547180    49.1200213847    46.9533547180    44.2866880513    39.9533547180    35.9533547180    33.9533547180    31.4533547180    28.9533547180    26.9533547180    24.4533547180    22.7866880513    24.7866880513    27.6200213847    27.4533547180    23.6200213847    21.6200213847    22.4533547180    25.2866880513    26.1200213847    25.9533547180    26.4533547180    26.6200213847    27.4533547180    30.7866880513    30.7866880513    29.6200213847    27.4533547180    28.1200213847    28.7866880513    30.4533547180    33.9533547180    35.7866880513    36.1200213847    32.4533547180    32.2866880513    33.4533547180    31.6200213847    31.9533547180    32.9533547180    30.7866880513    31.7866880513    34.2866880513    36.6200213847    35.7866880513    35.9533547180    35.9533547180    36.4533547180    35.7866880513    33.9533547180    33.2866880513    33.2866880513    32.7866880513    35.6200213847    34.6200213847    28.1200213847    22.6200213847    16.7866880513    13.1200213847    11.2866880513     9.1200213847     4.9533547180     2.1200213847    -0.2133119487    -2.7133119487    -4.8799786153    -6.2133119487    -8.2133119487   -10.3799786153   -12.8799786153   -16.3799786153   -16.8799786153   -17.2133119487   -15.3799786153   -14.2133119487   -14.0466452820   -14.2133119487   -13.2133119487   -13.0466452820   -14.8799786153   -15.7133119487   -15.2133119487   -14.0466452820   -12.8799786153   -10.5466452820    -9.5466452820    -6.7133119487    -1.0466452820     2.2583533814     3.3966853782     3.3683507084     3.5066827052     4.6450147019     5.1166800321     5.2550120289     6.5600106923 
    7.0012009608     7.8346677342     8.1681345076     8.0016012810     7.8350680544     7.6685348279     7.1686682679     5.8354683747     3.3354683747    -0.9978649586    -5.4978649586    -5.9978649586    -5.8311982920    -5.3311982920    -6.9978649586    -8.9978649586   -13.6645316253   -18.4978649586   -20.8311982920   -22.8311982920   -23.3311982920   -24.6645316253   -25.6645316253   -26.4978649586   -28.1645316253   -29.1645316253   -29.6645316253   -31.8311982920   -31.4978649586   -32.8311982920   -34.9978649586   -34.8311982920   -31.3311982920   -26.1645316253   -23.4978649586   -20.9978649586   -20.3311982920   -19.8311982920   -19.4978649586   -16.4978649586   -12.8311982920   -10.8311982920    -7.4978649586    -3.6645316253    -0.3311982920     2.5021350414     6.1688017080     6.6688017080     6.0021350414     2.8354683747     0.0021350414    -2.8311982920    -4.3311982920    -3.8311982920    -2.1645316253    -1.4978649586    -2.9978649586    -1.8311982920     0.1688017080    -0.3311982920    -0.9978649586    -0.4978649586    -0.1645316253     1.0021350414     1.5021350414     2.3354683747     4.5021350414     8.5021350414    11.3354683747    12.1688017080    10.3354683747     7.3354683747     5.8354683747     4.5021350414     1.8354683747    -0.8311982920    -2.9978649586    -3.9978649586    -3.9978649586    -3.9978649586    -3.4978649586    -2.4978649586    -2.9978649586    -3.1645316253    -1.9978649586    -0.4978649586     1.6688017080     4.8354683747     7.3354683747     8.1688017080     7.0021350414     7.0021350414     4.3354683747     2.1688017080    -0.1645316253    -0.1645316253     1.3354683747     2.6688017080     4.6688017080     5.3354683747     4.6688017080     3.8354683747     3.6688017080     4.3354683747     6.6688017080     8.5021350414    10.3354683747    12.5021350414    17.5021350414    23.0021350414    26.5021350414    26.8354683747    26.1688017080    26.1688017080    26.0021350414    24.0021350414    20.3354683747    17.0021350414    18.0021350414    18.3354683747    18.1688017080    19.3354683747    22.0021350414    24.0021350414    23.6688017080    20.1688017080    18.0021350414    18.6688017080    19.6688017080    19.3354683747    17.5021350414    16.0021350414    12.0021350414     9.5021350414     2.8354683747   -11.4978649586   -24.9978649586   -29.3311982920   -33.4978649586   -45.9978649586   -62.3311982920   -71.6645316253   -84.8311982920   -95.3311982920  -108.1645316253  -114.1645316253  -134.1645316253  -167.3311982920  -205.8311982920  -263.6645316253  -281.9978649586  -254.3311982920  -225.3311982920  -202.9978649586  -200.4978649586  -192.9978649586  -183.9978649586  -229.6645316253  -287.4978649586  -340.9978649586  -347.6645316253  -343.3311982920  -339.1645316253  -269.8311982920  -187.1645316253  -107.1645316253   -35.4978649586     3.6688017080    50.5021350414    11.3354683747    24.3354683747   105.8354683747   168.3354683747   193.8354683747   264.6688017080   358.6688017080   401.3354683747   404.1688017080   409.1688017080   340.1688017080   277.1688017080   238.6688017080   182.6688017080    98.0021350414    -1.6645316253   -39.4978649586  -108.3311982920  -235.1645316253  -347.3311982920  -361.1645316253  -386.6645316253  -470.3311982920  -545.1645316253  -593.8311982920  -633.3311982920  -658.8311982920  -688.8311982920  -723.4978649586  -763.6645316253  -779.8311982920  -797.6645316253  -788.4978649586  -779.4978649586  -771.1645316253  -753.9978649586  -751.6645316253  -763.1645316253  -744.9978649586  -731.4978649586  -713.8311982920  -686.3311982920  -653.4978649586  -624.9978649586  -583.3311982920  -539.4978649586  -497.4978649586  -458.1645316253  -431.4978649586  -406.4978649586  -390.4978649586  -381.1645316253  -370.4978649586  -335.9978649586  -284.3311982920  -229.4978649586  -182.3311982920  -139.3311982920   -90.9978649586   -48.3311982920   -16.9978649586    -0.8311982920    10.1688017080    29.6688017080    59.5021350414    97.8354683747   143.8354683747   201.8354683747   264.5021350414   300.6688017080   316.1688017080   330.1688017080   345.3354683747   358.5021350414   370.6688017080   386.3354683747   399.0021350414   421.3354683747   449.0021350414   477.8354683747   502.8354683747   518.0021350414   529.6688017080   533.5021350414   531.5021350414   527.8354683747   522.3354683747   515.1688017080   505.8354683747   496.8354683747   487.8354683747   480.3354683747   474.0021350414   462.1688017080   447.8354683747   431.6688017080   415.0021350414   398.8354683747   382.8354683747   368.5021350414   358.5021350414   349.1688017080   341.8354683747   336.0021350414   330.0021350414   323.5021350414   315.1688017080   305.5021350414   296.8354683747   290.6688017080   284.8354683747   279.8354683747   269.6688017080   262.5021350414   259.0021350414   254.6688017080   238.6688017080   215.6688017080   206.3354683747   206.5021350414   208.6688017080   212.0021350414   215.0021350414   221.8354683747   227.3354683747   229.3354683747   231.5021350414   232.6688017080   237.8354683747   240.5021350414   239.8354683747   238.8354683747   248.8354683747   267.6688017080   271.1688017080   267.3354683747   262.6688017080   255.0021350414   246.6688017080   236.6688017080   228.0021350414   220.6688017080   212.0021350414   203.8354683747   197.8354683747   193.8354683747   188.3354683747   185.3354683747   181.5021350414   175.1688017080   167.5021350414   155.8354683747   144.8354683747   136.8354683747   132.3354683747   126.3354683747   119.5021350414   113.8354683747   112.1688017080   113.3354683747   112.5021350414   108.8354683747   102.3354683747    95.0021350414    89.3354683747    84.0021350414    79.8354683747    77.3354683747    75.0021350414    74.6688017080    74.0021350414    72.0021350414    70.6688017080    71.0021350414    71.0021350414    69.0021350414    67.8354683747    68.3354683747    71.5021350414    75.0021350414    78.8354683747    81.8354683747    84.8354683747    87.1688017080    89.0021350414    89.8354683747    90.6688017080    92.3354683747    94.3354683747    92.0021350414    88.3354683747    83.5021350414    78.1688017080    72.6688017080    68.5021350414    63.3354683747    55.3354683747    47.8354683747    41.8354683747    36.8354683747    31.8354683747    24.0021350414    14.3354683747     6.5021350414    -1.4978649586    -7.8311982920   -15.1645316253   -21.8311982920   -28.8311982920   -32.1645316253   -33.9978649586   -36.4978649586   -37.9978649586   -38.3311982920   -37.1645316253   -34.3311982920   -30.9978649586   -25.8311982920   -20.1645316253   -14.8311982920   -10.8311982920    -6.8311982920    -1.9978649586     4.3354683747    14.0021350414    19.0021350414    20.5021350414    21.8354683747    23.5021350414    26.1688017080    26.8354683747    26.6688017080    25.6688017080    23.1688017080    21.8354683747    20.1688017080    19.5021350414    18.1688017080    17.6688017080    17.1688017080    15.0021350414    12.0021350414     9.5021350414     7.8354683747     6.0021350414     2.6688017080     0.6688017080    -3.1645316253    -6.8311982920    -7.8311982920    -9.3311982920   -10.8311982920   -12.9978649586   -14.8311982920   -16.9978649586   -20.1645316253   -24.1645316253   -27.8311982920   -31.4978649586   -33.3311982920   -35.9978649586   -37.8311982920   -40.6645316253   -42.9978649586   -45.3311982920   -47.9978649586   -51.8311982920   -55.1645316253   -56.9978649586   -56.8311982920   -55.1645316253   -52.4978649586   -48.3311982920   -42.9978649586   -35.9978649586   -31.4978649586   -27.9978649586   -26.9978649586   -25.1645316253   -21.3311982920   -17.1645316253   -15.3311982920   -15.3311982920   -16.6645316253   -14.3311982920   -13.1645316253   -15.3311982920   -18.8311982920   -21.8311982920   -23.8311982920   -28.6645316253   -32.9978649586   -35.9978649586   -36.8311982920   -36.9978649586   -38.4978649586   -41.1645316253   -42.8311982920   -40.3311982920   -36.4978649586   -35.4978649586   -34.3311982920   -32.1645316253   -30.3311982920   -28.1646650654   -26.6647985055   -23.6649319456   -20.4983987190   -17.4985321591   -14.6653322658   -12.1654657059    -9.9989324793 
   24.3309275595    25.6639935846    26.9970596097    27.4967923015    26.4965249933    24.4962576851    23.6626570436    24.1623897354    21.1623897354    16.9957230687    11.8290564020     8.3290564020     6.4957230687     4.3290564020     0.8290564020    -5.6709435980    -9.6709435980   -10.1709435980   -11.0042769313   -10.3376102646    -8.5042769313    -5.0042769313    -2.3376102646    -1.0042769313    -0.3376102646     0.6623897354     4.8290564020     9.4957230687    12.8290564020    16.4957230687    21.1623897354    25.8290564020    26.8290564020    26.8290564020    26.8290564020    24.9957230687    23.6623897354    19.6623897354    12.9957230687     8.6623897354     9.4957230687    10.6623897354    10.1623897354     7.1623897354     4.1623897354     0.9957230687    -2.8376102646    -5.0042769313    -3.1709435980    -3.5042769313    -7.3376102646    -9.8376102646   -11.8376102646   -13.3376102646   -14.5042769313   -16.6709435980   -18.8376102646   -20.0042769313   -21.8376102646   -22.1709435980   -25.5042769313   -25.6709435980   -21.1709435980   -16.1709435980   -14.1709435980   -10.8376102646    -1.8376102646     7.1623897354    16.6623897354    26.9957230687    37.8290564020    47.1623897354    52.6623897354    56.1623897354    57.3290564020    58.4957230687    63.1623897354    65.9957230687    64.6623897354    62.9957230687    60.3290564020    56.9957230687    52.8290564020    47.4957230687    41.8290564020    36.9957230687    35.9957230687    36.8290564020    37.3290564020    37.3290564020    39.8290564020    41.1623897354    41.8290564020    42.4957230687    45.3290564020    46.1623897354    48.3290564020    51.6623897354    53.6623897354    54.6623897354    52.9957230687    52.3290564020    49.8290564020    45.1623897354    39.8290564020    34.9957230687    31.1623897354    28.6623897354    26.8290564020    21.8290564020    17.3290564020    13.9957230687    11.8290564020     4.1623897354    -2.8376102646    -6.3376102646    -7.3376102646    -8.8376102646   -12.6709435980   -16.5042769313   -20.1709435980   -22.6709435980   -24.3376102646   -25.5042769313   -27.8376102646   -28.0042769313   -28.0042769313   -26.6709435980   -24.8376102646   -20.0042769313   -17.8376102646   -18.8376102646   -19.5042769313   -24.6709435980   -30.3376102646   -34.8376102646   -44.0042769313   -55.0042769313   -76.6709435980  -119.0042769313  -167.1709435980  -197.5042769313  -192.8376102646  -179.3376102646  -176.3376102646  -187.1709435980  -201.0042769313  -200.6709435980  -185.3376102646  -163.8376102646  -151.1709435980  -147.3376102646  -137.1709435980  -143.1709435980  -123.8376102646   -84.8376102646   -49.5042769313   -63.6709435980  -122.5042769313  -167.6709435980  -185.3376102646  -209.6709435980  -231.1709435980  -217.5042769313  -172.1709435980  -101.6709435980   -37.6709435980     7.9957230687    38.9957230687    59.4957230687    43.1623897354    57.4957230687    85.9957230687   128.4957230687   191.1623897354   211.4957230687   216.1623897354   250.9957230687   272.6623897354   228.8290564020   134.6623897354    10.3290564020   -84.6709435980  -145.6709435980  -202.0042769313  -247.3376102646  -275.5042769313  -328.8376102646  -381.0042769313  -411.5042769313  -461.5042769313  -497.1709435980  -528.5042769313  -578.6709435980  -615.3376102646  -634.1709435980  -654.8376102646  -667.0042769313  -685.5042769313  -707.8376102646  -716.1709435980  -701.8376102646  -684.6709435980  -673.0042769313  -665.0042769313  -661.3376102646  -653.8376102646  -653.1709435980  -673.8376102646  -687.6709435980  -685.1709435980  -677.5042769313  -645.0042769313  -602.8376102646  -557.0042769313  -515.6709435980  -484.3376102646  -458.3376102646  -445.0042769313  -432.0042769313  -400.3376102646  -363.3376102646  -306.8376102646  -229.3376102646  -137.1709435980   -42.8376102646    38.3290564020   112.6623897354   164.1623897354   200.1623897354   225.8290564020   250.1623897354   277.1623897354   300.3290564020   335.9957230687   374.6623897354   395.1623897354   415.9957230687   421.6623897354   418.1623897354   413.1623897354   405.9957230687   401.8290564020   402.9957230687   403.8290564020   404.6623897354   407.9957230687   414.6623897354   422.6623897354   433.1623897354   443.4957230687   450.4957230687   456.8290564020   456.8290564020   455.3290564020   451.8290564020   450.4957230687   453.1623897354   451.4957230687   444.3290564020   438.6623897354   431.9957230687   424.6623897354   417.9957230687   408.9957230687   398.3290564020   386.6623897354   375.4957230687   364.3290564020   355.8290564020   349.1623897354   346.4957230687   343.3290564020   335.3290564020   315.3290564020   300.1623897354   291.9957230687   273.9957230687   254.9957230687   237.3290564020   217.4957230687   193.8290564020   182.6623897354   172.1623897354   167.9957230687   156.9957230687   157.3290564020   163.8290564020   172.6623897354   182.1623897354   195.1623897354   198.3290564020   202.3290564020   220.6623897354   233.3290564020   231.9957230687   241.6623897354   251.9957230687   252.4957230687   244.8290564020   227.4957230687   216.1623897354   193.6623897354   172.1623897354   159.4957230687   150.8290564020   155.3290564020   167.1623897354   171.4957230687   170.6623897354   173.9957230687   189.9957230687   200.3290564020   215.4957230687   228.8290564020   247.4957230687   267.6623897354   286.3290564020   300.9957230687   307.3290564020   302.6623897354   295.6623897354   284.1623897354   273.9957230687   261.4957230687   247.3290564020   234.6623897354   220.3290564020   207.3290564020   193.3290564020   175.8290564020   163.9957230687   154.4957230687   140.1623897354   122.1623897354   109.3290564020    99.6623897354    88.1623897354    73.9957230687    54.1623897354    36.3290564020    29.9957230687    29.6623897354    31.3290564020    30.1623897354    25.3290564020    27.4957230687    28.9957230687    28.6623897354    32.6623897354    42.4957230687    45.1623897354    47.8290564020    52.9957230687    59.9957230687    68.8290564020    77.8290564020    77.9957230687    72.4957230687    63.8290564020    57.1623897354    50.9957230687    42.6623897354    34.9957230687    27.6623897354    21.1623897354    18.1623897354    17.6623897354    13.6623897354    10.6623897354     8.4957230687     9.9957230687    12.1623897354    13.9957230687    14.9957230687    17.3290564020    20.8290564020    28.8290564020    37.4957230687    42.8290564020    47.3290564020    52.3290564020    52.9957230687    49.9957230687    42.6623897354    38.3290564020    35.6623897354    32.1623897354    26.9957230687    19.9957230687    13.1623897354     7.4957230687     0.6623897354    -2.8376102646    -7.3376102646   -14.1709435980   -20.0042769313   -25.0042769313   -28.0042769313   -30.0042769313   -27.5042769313   -28.5042769313   -33.6709435980   -40.8376102646   -45.5042769313   -49.3376102646   -52.0042769313   -53.8376102646   -56.3376102646   -63.6709435980   -71.6709435980   -75.5042769313   -79.3376102646   -82.3376102646   -85.8376102646   -88.0042769313   -88.6709435980   -90.0042769313   -88.0042769313   -84.3376102646   -80.3376102646   -73.1709435980   -65.8376102646   -60.8376102646   -55.8376102646   -51.5042769313   -46.5042769313   -42.6709435980   -38.8376102646   -37.6709435980   -37.1709435980   -36.5042769313   -34.6709435980   -30.6709435980   -29.3376102646   -28.8376102646   -29.8376102646   -31.0042769313   -33.0042769313   -34.5042769313   -37.5042769313   -39.3376102646   -38.3376102646   -34.5042769313   -31.0042769313   -27.0042769313   -23.1709435980   -20.5042769313   -20.8376102646   -22.1709435980   -22.0042769313   -22.1709435980   -22.3376102646   -23.8376102646   -24.6709435980   -26.8376102646   -27.8376102646   -26.6709435980   -26.0042769313   -27.8376102646   -31.1709435980   -35.1709435980   -38.0042769313   -39.5042769313   -43.1709435980   -48.1709435980   -52.8376102646   -54.3376102646   -55.0042769313   -55.8376102646   -57.3376102646   -58.0042769313   -58.0042769313   -54.6706762898   -53.3370756482   -52.8368083400   -50.6698743651   -47.1696070569   -44.1693397487   -41.8357391072   -36.8354717990 
    6.4641807003     7.3861267041     7.6414060412     6.3966853782     3.8186313820     2.9072440524     4.6625233895     5.4178027265     3.5844693932     2.4178027265     2.0844693932     1.2511360599     0.7511360599    -1.0821972735    -2.4155306068    -2.9155306068    -4.2488639401    -4.9155306068    -5.9155306068    -7.2488639401    -7.2488639401    -7.7488639401    -9.9155306068    -9.7488639401   -10.0821972735    -7.7488639401    -3.5821972735    -0.7488639401    -0.7488639401    -2.0821972735    -4.7488639401    -6.4155306068    -6.9155306068    -6.7488639401    -5.9155306068    -3.4155306068     0.0844693932     3.4178027265     6.2511360599     6.2511360599     8.7511360599     8.9178027265     7.0844693932     7.2511360599     8.7511360599    10.5844693932    12.5844693932    12.2511360599    10.9178027265     7.5844693932     5.0844693932     4.5844693932     3.4178027265     1.4178027265    -2.2488639401    -5.4155306068    -8.2488639401    -9.7488639401   -11.9155306068   -16.7488639401   -20.4155306068   -23.5821972735   -25.9155306068   -28.7488639401   -30.2488639401   -29.7488639401   -29.4155306068   -28.9155306068   -27.2488639401   -25.7488639401   -22.9155306068   -17.7488639401   -14.5821972735   -13.0821972735   -11.0821972735    -8.2488639401    -5.9155306068    -4.5821972735    -4.5821972735    -4.0821972735    -4.2488639401    -3.5821972735    -3.5821972735    -5.7488639401    -8.0821972735   -10.7488639401   -12.7488639401   -15.2488639401   -15.9155306068   -16.5821972735   -15.4155306068   -13.4155306068   -12.9155306068   -15.9155306068   -14.7488639401   -13.2488639401    -9.4155306068   -12.0821972735   -12.4155306068   -12.4155306068   -14.2488639401   -15.0821972735   -10.0821972735    -7.2488639401    -4.9155306068    -2.4155306068    -3.5821972735    -5.2488639401    -4.2488639401     2.0844693932     6.0844693932    10.2511360599    12.4178027265    16.4178027265    11.4178027265     5.9178027265     6.9178027265     6.7511360599     2.0844693932     5.9178027265    11.9178027265    13.7511360599    16.9178027265    18.4178027265     5.0844693932   -21.0821972735   -36.7488639401   -37.7488639401   -32.2488639401   -22.7488639401    -6.5821972735    17.2511360599    19.5844693932     1.5844693932    -8.5821972735    -7.4155306068   -20.0821972735   -30.9155306068   -25.9155306068   -41.7488639401   -70.4155306068   -58.4155306068   -21.2488639401     1.5844693932     5.7511360599     1.5844693932   -18.5821972735   -41.5821972735   -35.2488639401    19.0844693932    68.5844693932    82.0844693932    92.5844693932    86.5844693932    60.2511360599    33.2511360599    70.5844693932    67.7511360599     4.5844693932    -8.5821972735    -4.9155306068    -1.5821972735    26.2511360599    52.9178027265    30.5844693932    -3.2488639401   -48.9155306068   -97.0821972735   -98.7488639401   -98.9155306068  -131.2488639401  -122.5821972735  -103.0821972735   -85.4155306068   -93.0821972735  -150.9155306068  -209.7488639401  -238.0821972735  -291.9155306068  -384.4155306068  -398.5821972735  -403.5821972735  -414.9155306068  -432.0821972735  -494.4155306068  -531.0821972735  -515.2488639401  -520.4155306068  -585.9155306068  -629.4155306068  -631.7488639401  -633.4155306068  -646.5821972735  -686.4155306068  -702.9155306068  -677.0821972735  -688.2488639401  -731.4155306068  -768.2488639401  -789.5821972735  -809.4155306068  -809.4155306068  -805.7488639401  -786.2488639401  -758.0821972735  -738.7488639401  -703.7488639401  -663.5821972735  -619.0821972735  -581.0821972735  -552.2488639401  -524.0821972735  -486.9155306068  -435.7488639401  -371.2488639401  -291.5821972735  -199.9155306068  -133.9155306068   -83.4155306068   -48.0821972735    -9.0821972735    33.5844693932    67.7511360599    92.0844693932   120.7511360599   163.2511360599   211.2511360599   253.0844693932   278.9178027265   296.5844693932   308.7511360599   317.9178027265   325.9178027265   329.5844693932   325.9178027265   328.9178027265   334.2511360599   338.5844693932   345.7511360599   356.5844693932   366.5844693932   374.4178027265   380.9178027265   387.9178027265   395.2511360599   404.2511360599   409.5844693932   413.5844693932   415.5844693932   417.2511360599   422.4178027265   422.9178027265   422.0844693932   417.7511360599   411.5844693932   406.4178027265   402.2511360599   398.0844693932   391.0844693932   379.9178027265   369.4178027265   358.0844693932   351.4178027265   345.0844693932   340.7511360599   338.7511360599   337.9178027265   339.4178027265   340.4178027265   341.9178027265   343.9178027265   343.0844693932   339.2511360599   333.0844693932   328.5844693932   325.7511360599   323.5844693932   321.7511360599   316.5844693932   307.9178027265   301.2511360599   287.7511360599   274.4178027265   262.4178027265   254.4178027265   249.7511360599   244.5844693932   238.2511360599   231.2511360599   222.2511360599   213.9178027265   208.9178027265   203.9178027265   199.0844693932   194.0844693932   190.7511360599   187.5844693932   192.0844693932   196.4178027265   196.7511360599   192.9178027265   186.0844693932   180.2511360599   175.4178027265   171.0844693932   170.9178027265   169.9178027265   164.5844693932   157.9178027265   152.0844693932   149.0844693932   147.9178027265   146.0844693932   143.2511360599   138.9178027265   136.0844693932   134.9178027265   133.2511360599   131.5844693932   130.7511360599   131.4178027265   131.2511360599   130.5844693932   131.2511360599   132.0844693932   132.9178027265   133.9178027265   134.7511360599   133.5844693932   129.9178027265   125.2511360599   120.4178027265   114.4178027265   108.2511360599   100.4178027265    92.7511360599    86.5844693932    82.2511360599    78.4178027265    73.9178027265    70.2511360599    65.9178027265    60.4178027265    55.0844693932    50.5844693932    48.0844693932    46.7511360599    45.4178027265    44.7511360599    43.7511360599    44.2511360599    44.2511360599    44.5844693932    43.2511360599    41.4178027265    42.0844693932    40.9178027265    38.5844693932    35.5844693932    33.5844693932    33.0844693932    33.7511360599    34.0844693932    34.9178027265    35.5844693932    37.5844693932    39.9178027265    42.9178027265    42.7511360599    42.4178027265    42.2511360599    41.9178027265    44.0844693932    46.7511360599    49.7511360599    52.5844693932    54.5844693932    56.2511360599    56.5844693932    54.4178027265    52.4178027265    51.4178027265    50.0844693932    49.5844693932    48.4178027265    46.5844693932    46.7511360599    46.5844693932    45.2511360599    43.9178027265    40.7511360599    36.5844693932    31.5844693932    26.5844693932    23.9178027265    22.2511360599    20.2511360599    17.7511360599    13.2511360599     7.4178027265     6.0844693932     8.2511360599     9.4178027265     8.4178027265     6.2511360599     4.0844693932     3.7511360599     1.5844693932    -0.7488639401    -2.5821972735    -3.5821972735    -3.7488639401    -4.4155306068    -7.5821972735   -10.7488639401   -14.4155306068   -18.7488639401   -25.4155306068   -33.2488639401   -39.5821972735   -44.0821972735   -47.2488639401   -49.7488639401   -49.7488639401   -49.9155306068   -49.0821972735   -48.0821972735   -46.7488639401   -46.5821972735   -45.4155306068   -41.2488639401   -34.2488639401   -27.9155306068   -21.9155306068   -16.0821972735   -10.9155306068    -7.4155306068    -4.5821972735    -2.4155306068    -1.4155306068     2.7511360599     5.9178027265     8.2511360599     7.7511360599     7.4178027265     7.5844693932     6.9178027265     5.2511360599     3.0844693932     0.0844693932    -1.2488639401    -0.5821972735     1.4178027265     0.9178027265    -0.4155306068    -1.7488639401    -4.7488639401    -7.9155306068   -10.4155306068    -9.9155306068    -9.0821972735    -9.7488639401   -10.7488639401   -13.0821972735   -16.0821972735   -16.5821972735   -16.4155306068   -16.4155306068   -16.5821972735   -16.0821972735   -15.7488639401   -14.4155306068   -14.0821972735   -13.0041432772   -12.4260892809   -12.3480352847   -11.9366479551    -9.8585939588    -8.2805399626    -6.2024859663    -3.7910986367 
