   22.7776888177    25.6603949827    27.0431011476    28.7591406459    30.4751801441    32.3578863090    33.7405924740    34.9566319722    33.7899653056    31.4566319722    29.4566319722    26.2899653056    23.2899653056    21.1232986389    19.4566319722    17.1232986389    13.9566319722    10.9566319722    10.2899653056    11.2899653056    11.1232986389     8.9566319722     6.9566319722     5.1232986389     4.6232986389     5.9566319722     6.2899653056     7.7899653056     7.9566319722     8.9566319722    10.7899653056    13.6232986389    15.1232986389    17.9566319722    19.7899653056    18.4566319722    18.1232986389    18.7899653056    19.2899653056    19.9566319722    19.2899653056    17.9566319722    18.4566319722    18.9566319722    21.1232986389    22.7899653056    23.2899653056    22.9566319722    23.6232986389    22.6232986389    22.2899653056    24.7899653056    27.2899653056    30.9566319722    36.7899653056    41.4566319722    44.9566319722    46.6232986389    47.4566319722    48.2899653056    48.6232986389    48.4566319722    47.1232986389    45.6232986389    45.2899653056    46.9566319722    48.4566319722    48.4566319722    49.4566319722    50.1232986389    47.7899653056    46.2899653056    47.1232986389    48.7899653056    50.6232986389    52.6232986389    53.2899653056    52.1232986389    51.6232986389    52.7899653056    53.9566319722    53.2899653056    51.9566319722    50.1232986389    47.1232986389    43.6232986389    40.1232986389    33.7899653056    28.9566319722    27.4566319722    27.2899653056    26.6232986389    26.1232986389    25.6232986389    25.6232986389    24.7899653056    21.9566319722    20.7899653056    21.7899653056    24.6232986389    27.7899653056    30.7899653056    34.4566319722    41.2899653056    45.7899653056    45.6232986389    42.4566319722    39.1232986389    38.6232986389    41.7899653056    45.4566319722    47.6232986389    50.4566319722    52.6232986389    54.2899653056    54.7899653056    55.4566319722    57.6232986389    59.6232986389    60.7899653056    61.4566319722    62.9566319722    65.2899653056    69.2899653056    72.7899653056    74.6232986389    77.4566319722    81.1232986389    84.1232986389    86.1232986389    86.9566319722    86.7899653056    85.2899653056    83.6232986389    83.9566319722    84.9566319722    87.2899653056    90.4566319722    93.4566319722    95.2899653056    97.2899653056    98.6232986389    98.1232986389    96.2899653056    96.9566319722    98.6232986389   100.4566319722   101.4566319722   102.7899653056   103.7899653056   103.7899653056   101.7899653056    97.7899653056    92.4566319722    89.6232986389    87.6232986389    85.2899653056    82.2899653056    80.1232986389    78.7899653056    76.2899653056    72.2899653056    69.4566319722    70.6232986389    73.2899653056    75.1232986389    76.1232986389    77.4566319722    77.6232986389    80.1232986389    80.6232986389    78.7899653056    77.1232986389    79.6232986389    82.1232986389    82.9566319722    82.6232986389    83.9566319722    85.4566319722    82.2899653056    70.9566319722    53.2899653056    21.1232986389   -35.8767013611  -106.3767013611  -181.2100346944  -253.5433680278  -365.5433680278  -497.0433680278  -660.8767013611  -867.3767013611 -1121.7100346944 -1381.0433680278 -1562.3767013611 -1774.8767013611 -2069.8767013611 -2419.5433680278 -2723.5433680278 -2923.7100346944 -3075.2100346944 -3163.3767013611 -3138.8767013611 -3032.5433680278 -3007.5433680278 -2919.7100346944 -2616.8767013611 -2242.8767013611 -1999.7100346944 -1928.2100346944 -1928.2100346944 -1769.7100346944 -1513.2100346944 -1253.8767013611 -1080.8767013611  -913.7100346944  -730.5433680278  -432.2100346944  -375.0433680278  -542.5433680278  -374.7100346944  -198.5433680278  -412.8767013611  -393.0433680278  -203.5433680278   230.9566319722   562.2899653056   570.4566319722   570.1232986389   722.4566319722   973.1232986389  1075.9566319722  1345.9566319722  1352.1232986389  1262.1232986389  1228.6232986389  1151.9566319722  1092.9566319722  1323.7899653056  1198.1232986389  1048.9566319722   914.4566319722   860.6232986389   948.7899653056  1085.7899653056  1033.9566319722   866.4566319722   875.6232986389   732.1232986389   765.7899653056  1014.9566319722  1315.2899653056  1372.7899653056  1345.4566319722  1249.2899653056  1254.7899653056  1297.2899653056  1244.2899653056  1189.9566319722  1182.2899653056  1112.2899653056  1128.6232986389  1199.2899653056  1152.6232986389  1055.1232986389   882.9566319722   721.7899653056   588.6232986389   518.7899653056   459.4566319722   395.7899653056   338.9566319722   294.6232986389   267.7899653056   251.2899653056   240.4566319722   247.6232986389   271.4566319722   312.6232986389   358.2899653056   398.1232986389   435.2899653056   475.6232986389   519.9566319722   573.7899653056   632.2899653056   680.2899653056   712.7899653056   733.6232986389   749.9566319722   772.7899653056   798.4566319722   813.2899653056   823.1232986389   829.4566319722   837.6232986389   852.2899653056   870.9566319722   892.1232986389   918.1232986389   947.6232986389   981.6232986389  1011.2899653056  1041.2899653056  1066.9566319722  1091.4566319722  1117.9566319722  1141.4566319722  1163.9566319722  1182.1232986389  1194.2899653056  1202.9566319722  1205.6232986389  1205.2899653056  1196.9566319722  1178.9566319722  1158.2899653056  1132.2899653056  1100.2899653056  1058.7899653056  1015.6232986389   966.9566319722   904.7899653056   853.1232986389   814.6232986389   777.7899653056   741.7899653056   704.7899653056   662.7899653056   616.4566319722   570.6232986389   529.6232986389   483.9566319722   437.6232986389   401.7899653056   372.4566319722   342.1232986389   314.9566319722   295.9566319722   264.4566319722   221.6232986389   180.7899653056   139.2899653056    98.4566319722    62.4566319722    31.2899653056     1.2899653056   -30.0433680278   -57.2100346944   -83.0433680278  -111.3767013611  -136.2100346944  -158.2100346944  -180.3767013611  -201.8767013611  -221.7100346944  -240.0433680278  -260.8767013611  -278.5433680278  -293.8767013611  -303.0433680278  -311.8767013611  -319.3767013611  -326.3767013611  -331.7100346944  -336.0433680278  -339.7100346944  -346.2100346944  -349.2100346944  -344.5433680278  -339.2100346944  -333.7100346944  -328.7100346944  -324.3767013611  -318.3767013611  -311.5433680278  -306.5433680278  -301.8767013611  -296.3767013611  -287.3767013611  -279.3767013611  -272.8767013611  -266.7100346944  -259.5433680278  -255.0433680278  -254.8767013611  -251.7100346944  -249.3767013611  -247.8767013611  -244.7100346944  -242.3767013611  -238.2100346944  -234.7100346944  -233.3767013611  -232.2100346944  -234.0433680278  -237.3767013611  -240.7100346944  -241.5433680278  -239.5433680278  -236.8767013611  -234.0433680278  -232.3767013611  -231.5433680278  -230.3767013611  -228.8767013611  -227.5433680278  -228.0433680278  -227.7100346944  -225.0433680278  -222.0433680278  -217.2100346944  -211.3767013611  -207.0433680278  -204.7100346944  -202.0433680278  -198.7100346944  -195.0433680278  -191.7100346944  -187.0433680278  -181.2100346944  -173.2100346944  -168.5433680278  -165.7100346944  -166.2100346944  -167.8767013611  -168.2100346944  -167.5433680278  -167.2100346944  -166.2100346944  -164.5433680278  -165.2100346944  -166.8767013611  -169.0433680278  -170.8767013611  -173.2100346944  -175.0433680278  -179.0433680278  -179.7100346944  -179.7100346944  -178.3767013611  -177.5433680278  -178.3767013611  -180.7100346944  -182.8767013611  -182.2100346944  -181.5433680278  -181.7100346944  -183.7100346944  -185.2100346944  -185.7100346944  -185.2100346944  -186.2100346944  -187.3767013611  -187.8767013611  -185.3767013611  -182.7100346944  -180.3767013611  -176.8767013611  -173.2100346944  -169.2100346944  -167.0433680278  -167.8767013611  -167.3767013611  -162.5433680278  -157.2100346944  -150.3767013611  -144.5433680278  -138.3767013611  -131.0433680278  -123.8767013611  -119.7100346944  -116.2100346944  -112.8767013611  -103.7594075260   -94.8087803576   -86.1914865225   -77.5741926875   -66.4568988524   -55.8396050173   -47.5556445156   -39.7716840139 
   10.1161454157    10.4438652767     9.6049184710     8.9326383320     8.9270248597     9.4214113873     9.4157979150     9.7435177760     9.2435177760     7.5768511093     6.2435177760     3.7435177760     1.7435177760    -1.4231488907    -3.4231488907    -6.5898155574   -11.5898155574   -15.4231488907   -17.7564822240   -20.7564822240   -23.0898155574   -25.0898155574   -27.0898155574   -29.7564822240   -32.7564822240   -35.9231488907   -37.0898155574   -38.7564822240   -40.9231488907   -41.7564822240   -42.9231488907   -44.2564822240   -42.4231488907   -39.2564822240   -36.9231488907   -34.5898155574   -32.9231488907   -32.0898155574   -30.7564822240   -27.5898155574   -22.7564822240   -17.7564822240   -16.2564822240   -14.4231488907   -11.7564822240    -8.9231488907    -8.2564822240    -7.0898155574    -9.2564822240   -12.9231488907   -13.9231488907   -14.5898155574   -15.5898155574   -14.7564822240    -9.2564822240    -4.2564822240    -2.2564822240    -0.7564822240     1.7435177760     2.5768511093     3.5768511093     5.2435177760     7.7435177760    10.9101844426    17.5768511093    24.9101844426    28.2435177760    29.0768511093    29.2435177760    29.2435177760    24.9101844426    18.5768511093    11.7435177760     3.2435177760    -3.9231488907    -9.0898155574   -13.5898155574   -19.7564822240   -24.4231488907   -27.5898155574   -28.2564822240   -30.7564822240   -32.2564822240   -30.0898155574   -28.7564822240   -27.9231488907   -26.0898155574   -23.5898155574   -19.2564822240   -11.4231488907    -2.5898155574     5.5768511093    11.4101844426    18.2435177760    22.4101844426    27.4101844426    30.0768511093    33.9101844426    38.5768511093    43.2435177760    47.4101844426    47.0768511093    44.5768511093    42.4101844426    40.5768511093    37.2435177760    34.5768511093    30.7435177760    27.0768511093    22.4101844426    19.4101844426    16.0768511093    12.9101844426    10.0768511093     7.5768511093     3.2435177760    -1.0898155574    -0.4231488907     3.0768511093     6.2435177760     9.9101844426    14.5768511093    17.0768511093    18.2435177760    20.2435177760    22.2435177760    24.5768511093    24.0768511093    21.9101844427    20.5768511093    20.0768511093    19.7435177760    20.0768511093    18.4101844426    14.9101844426    12.2435177760     8.7435177760     5.9101844426     3.5768511093     3.5768511093     4.7435177760     4.4101844426     3.9101844426     2.4101844426     2.7435177760     5.4101844426     6.9101844426     6.2435177760     5.5768511093     3.0768511093    -1.4231488907    -5.0898155574    -6.2564822240    -8.5898155574   -11.4231488907   -12.2564822240   -15.4231488907   -16.2564822240   -17.0898155574   -19.5898155574   -20.0898155574   -34.0898155574   -46.0898155574   -46.7564822240   -49.5898155574   -51.0898155574   -49.2564822240   -46.0898155574   -57.2564822240   -82.2564822240  -117.9231488907  -171.5898155574  -203.5898155574  -228.4231488907  -236.2564822240  -254.9231488907  -331.2564822240  -443.0898155574  -531.2564822240  -618.7564822240  -684.9231488907  -721.4231488907  -779.7564822240  -870.5898155574  -956.9231488907 -1038.4231488907 -1152.7564822240 -1301.2564822240 -1536.4231488907 -1742.9231488907 -1855.9231488907 -1959.0898155574 -2059.9231488907 -2089.0898155574 -2228.4231488907 -2409.2564822240 -2681.0898155574 -2932.5898155574 -3027.5898155574 -3094.2564822240 -3112.9231488907 -3008.0898155574 -2766.9231488907 -2462.9231488907 -2162.2564822240 -1997.2564822240 -1880.9231488907 -1761.9231488907 -1682.0898155574 -1410.9231488907 -1023.4231488907  -780.2564822240  -315.4231488907   215.0768511093   531.5768511093   665.0768511093   812.7435177760   940.2435177760   969.0768511093  1066.2435177760  1159.0768511093  1261.5768511093  1228.0768511093  1280.9101844426  1318.0768511093  1116.0768511093  1043.2435177760  1309.5768511093  1300.5768511093  1175.9101844427  1227.2435177760  1388.7435177760  1506.9101844427  1408.5768511093  1287.9101844427   968.9101844427   690.5768511093   582.2435177760   582.2435177760   673.2435177760   924.7435177760  1238.4101844427  1370.0768511093  1288.7435177760  1298.0768511093  1227.4101844427  1045.7435177760   883.2435177760   712.4101844426   705.9101844427   750.2435177760   917.0768511093  1113.4101844427  1220.5768511093  1287.2435177760  1175.7435177760  1004.9101844427   788.4101844427   593.0768511093   445.0768511093   318.9101844426   262.5768511093   217.4101844426   236.7435177760   261.0768511093   271.5768511093   272.7435177760   268.7435177760   266.7435177760   272.5768511093   282.0768511093   290.7435177760   303.5768511093   322.0768511093   345.2435177760   372.9101844426   414.5768511093   469.2435177760   523.9101844426   572.5768511093   616.5768511093   638.2435177760   651.0768511093   670.0768511093   695.9101844426   726.9101844426   763.2435177760   804.7435177760   849.2435177760   895.0768511093   938.5768511093   981.5768511093  1022.7435177760  1059.0768511093  1099.7435177760  1136.2435177760  1168.0768511093  1190.2435177760  1205.4101844427  1212.0768511093  1209.7435177760  1201.7435177760  1188.4101844427  1170.9101844427  1148.4101844427  1123.0768511093  1090.0768511093  1052.9101844427  1017.0768511093   983.2435177760   943.5768511093   898.9101844427   852.5768511093   804.2435177760   759.7435177760   718.0768511093   676.5768511093   636.4101844426   597.0768511093   559.4101844426   522.5768511093   483.2435177760   445.9101844426   408.5768511093   367.9101844426   326.7435177760   284.7435177760   246.7435177760   210.9101844426   180.7435177760   147.0768511093   111.2435177760    79.0768511093    46.2435177760    15.4101844426   -16.2564822240   -48.0898155574   -77.2564822240  -103.2564822240  -125.4231488907  -143.5898155574  -162.0898155574  -176.4231488907  -188.0898155574  -198.4231488907  -211.5898155574  -222.9231488907  -231.4231488907  -237.4231488907  -240.7564822240  -242.9231488907  -244.5898155574  -243.9231488907  -242.9231488907  -241.7564822240  -240.5898155574  -240.4231488907  -239.0898155574  -238.0898155574  -237.5898155574  -237.4231488907  -235.5898155574  -234.2564822240  -233.0898155574  -233.2564822240  -237.7564822240  -244.7564822240  -249.7564822240  -253.0898155574  -256.0898155574  -259.9231488907  -266.0898155574  -267.9231488907  -270.4231488907  -274.0898155574  -274.9231488907  -276.7564822240  -275.2564822240  -274.0898155574  -273.9231488907  -274.4231488907  -272.4231488907  -270.0898155574  -268.5898155574  -269.2564822240  -269.9231488907  -269.4231488907  -265.9231488907  -267.5898155574  -267.7564822240  -264.0898155574  -261.2564822240  -259.4231488907  -260.2564822240  -259.5898155574  -257.4231488907  -255.7564822240  -253.9231488907  -250.5898155574  -246.5898155574  -240.2564822240  -233.4231488907  -227.2564822240  -221.2564822240  -212.7564822240  -204.0898155574  -198.7564822240  -197.5898155574  -195.5898155574  -194.0898155574  -189.0898155574  -185.2564822240  -182.5898155574  -181.2564822240  -179.9231488907  -178.0898155574  -178.5898155574  -180.5898155574  -184.2564822240  -189.0898155574  -192.4231488907  -196.5898155574  -198.7564822240  -198.0898155574  -196.4231488907  -193.7564822240  -193.0898155574  -193.2564822240  -193.0898155574  -189.5898155574  -184.9231488907  -181.9231488907  -179.2564822240  -174.0898155574  -165.7564822240  -158.0898155574  -152.0898155574  -145.4231488907  -139.4231488907  -135.4231488907  -130.5898155574  -125.4231488907  -121.7564822240  -116.9231488907  -113.0898155574  -111.2564822240  -111.7564822240  -113.2564822240  -113.0898155574  -112.5898155574  -112.4231488907  -112.5898155574  -114.0898155574  -116.5898155574  -117.9231488907  -117.2564822240  -118.0898155574  -120.7564822240  -120.5898155574  -120.9231488907  -118.2564822240  -116.0898155574  -113.0898155574  -109.0898155574  -106.9231488907  -106.5898155574  -106.9231488907  -106.0898155574  -101.7564822240   -96.4231488907   -92.0898155574   -89.2564822240   -86.5898155574   -78.0842020850   -72.2452552793   -65.9063084737   -60.7340283347   -54.7284148623   -49.2228013900   -43.5505212510   -36.8782411120 
  -25.8465227818   -29.9776179057   -34.4420463629   -40.5731414868   -46.0375699440   -50.3353317346   -53.1330935252   -55.7641886491   -57.9308553158   -58.4308553158   -57.7641886491   -58.4308553158   -60.2641886491   -61.9308553158   -60.7641886491   -59.4308553158   -59.2641886491   -58.5975219824   -58.2641886491   -56.0975219824   -53.4308553158   -51.0975219824   -50.9308553158   -50.5975219824   -47.7641886491   -44.4308553158   -42.7641886491   -42.5975219824   -41.9308553158   -41.4308553158   -39.9308553158   -37.4308553158   -35.4308553158   -34.5975219824   -31.7641886491   -28.5975219824   -25.4308553158   -22.9308553158   -20.4308553158   -19.4308553158   -20.2641886491   -20.9308553158   -21.5975219824   -20.9308553158   -19.0975219824   -16.5975219824   -16.4308553158   -17.5975219824   -19.2641886491   -19.4308553158   -21.7641886491   -26.4308553158   -32.0975219824   -37.7641886491   -41.9308553158   -42.5975219824   -41.0975219824   -42.2641886491   -42.7641886491   -41.5975219824   -39.7641886491   -38.2641886491   -37.9308553158   -38.4308553158   -37.2641886491   -34.2641886491   -31.2641886491   -27.4308553158   -23.5975219824   -20.7641886491   -18.7641886491   -19.5975219824   -21.5975219824   -22.7641886491   -23.7641886491   -24.0975219824   -25.0975219824   -27.9308553158   -29.0975219824   -29.4308553158   -29.2641886491   -31.0975219824   -33.0975219824   -35.0975219824   -37.4308553158   -37.5975219824   -36.9308553158   -36.2641886491   -34.5975219824   -30.4308553158   -26.7641886491   -25.2641886491   -25.5975219824   -25.5975219824   -25.0975219824   -23.9308553158   -23.2641886491   -22.2641886491   -19.9308553158   -15.4308553158    -8.9308553158    -5.0975219824    -3.2641886491    -2.5975219824    -3.5975219824    -5.4308553158    -6.9308553158    -8.5975219824    -8.7641886491    -7.9308553158    -7.2641886491    -5.9308553158    -7.5975219824    -8.9308553158   -10.9308553158   -14.0975219824   -19.4308553158   -22.0975219824   -23.5975219824   -22.7641886491   -20.4308553158   -18.9308553158   -18.0975219824   -17.5975219824   -17.9308553158   -18.2641886491   -17.9308553158   -19.5975219824   -18.9308553158   -18.4308553158   -15.7641886491   -13.0975219824    -9.7641886491    -9.0975219824    -7.7641886491    -6.9308553158    -7.4308553158    -8.2641886491   -10.4308553158   -13.0975219824   -14.4308553158   -13.5975219824   -14.4308553158   -16.7641886491   -18.0975219824   -18.2641886491   -18.9308553158   -18.9308553158   -20.4308553158   -23.0975219824   -26.7641886491   -26.9308553158   -25.4308553158   -24.5975219824   -22.9308553158   -21.0975219824   -19.0975219824   -19.2641886491   -19.7641886491   -17.2641886491   -13.5975219824    -9.7641886491   -10.0975219824   -11.9308553158   -12.5975219824   -11.4308553158   -12.2641886491   -21.7641886491   -27.5975219824   -32.4308553158   -35.9308553158   -36.5975219824   -35.2641886491   -39.5975219824   -47.9308553158   -63.4308553158   -84.4308553158  -119.2641886491  -150.2641886491  -192.2641886491  -256.9308553158  -326.5975219824  -413.0975219824  -507.7641886491  -624.2641886491  -755.4308553158  -909.0975219824 -1074.5975219824 -1318.0975219824 -1627.4308553158 -1924.0975219824 -2252.4308553158 -2518.7641886491 -2822.4308553158 -3170.2641886491 -3402.5975219824 -3621.0975219824 -3840.2641886491 -3866.5975219824 -3727.9308553158 -3383.4308553158 -3145.9308553158 -2991.7641886491 -2768.2641886491 -2459.9308553158 -2237.4308553158 -1924.9308553158 -1646.9308553158 -1300.0975219824  -926.2641886491  -586.9308553158  -299.5975219824     8.5691446842   387.0691446842   686.5691446842   681.0691446842   298.5691446842   220.7358113509   516.5691446842   733.7358113509   803.2358113509   927.2358113509   834.9024780176   795.4024780176   741.9024780176   743.5691446842   847.4024780176   960.9024780176  1014.4024780176   969.4024780176   868.9024780176   976.5691446842  1175.5691446842  1310.7358113509  1022.7358113509   867.5691446842   813.5691446842   687.0691446842   715.7358113509   920.9024780176  1053.9024780176  1178.2358113509  1195.4024780176  1153.5691446842  1145.5691446842  1200.2358113509  1267.0691446842  1147.9024780176   963.0691446842   834.5691446842   987.2358113509  1047.4024780176   985.7358113509  1102.5691446842  1224.9024780176  1236.7358113509  1219.4024780176  1216.5691446842  1283.0691446842  1310.4024780176  1331.5691446842  1314.7358113509  1236.4024780176  1264.5691446842  1434.0691446842  1414.7358113509  1266.2358113509  1091.4024780176  1076.4024780176  1065.4024780176   999.5691446842   858.9024780176   700.7358113509   542.4024780176   435.4024780176   380.5691446842   341.9024780176   307.7358113509   276.5691446842   265.9024780176   272.5691446842   292.9024780176   316.2358113509   343.9024780176   377.7358113509   406.7358113509   450.0691446842   522.7358113509   602.7358113509   647.2358113509   657.5691446842   651.4024780176   646.9024780176   647.0691446842   657.2358113509   674.5691446842   697.0691446842   720.7358113509   739.7358113509   756.9024780176   770.4024780176   784.9024780176   799.2358113509   813.2358113509   825.4024780176   835.0691446842   837.9024780176   837.7358113509   838.5691446842   839.2358113509   840.0691446842   841.5691446842   839.0691446842   831.4024780176   826.2358113509   824.2358113509   819.7358113509   809.9024780176   793.9024780176   773.5691446842   748.7358113509   720.0691446842   687.2358113509   652.2358113509   624.4024780176   604.7358113509   585.2358113509   561.5691446842   539.2358113509   518.5691446842   490.0691446842   453.7358113509   410.5691446842   369.7358113509   338.2358113509   311.9024780176   288.7358113509   265.4024780176   244.5691446842   228.7358113509   206.9024780176   174.4024780176   135.9024780176    98.4024780176    61.2358113509    26.7358113509     0.0691446842   -19.9308553158   -32.5975219824   -47.4308553158   -70.0975219824   -96.7641886491  -123.7641886491  -145.9308553158  -161.0975219824  -173.4308553158  -184.9308553158  -194.0975219824  -200.7641886491  -208.5975219824  -215.0975219824  -223.9308553158  -232.7641886491  -238.7641886491  -242.4308553158  -242.9308553158  -241.4308553158  -239.5975219824  -235.0975219824  -231.9308553158  -231.9308553158  -233.4308553158  -235.0975219824  -235.0975219824  -232.5975219824  -228.7641886491  -225.2641886491  -220.7641886491  -216.5975219824  -215.7641886491  -221.0975219824  -228.2641886491  -233.5975219824  -236.9308553158  -241.2641886491  -243.9308553158  -244.5975219824  -246.4308553158  -249.5975219824  -253.4308553158  -255.7641886491  -259.5975219824  -262.9308553158  -265.5975219824  -264.4308553158  -259.9308553158  -253.7641886491  -246.9308553158  -241.2641886491  -234.9308553158  -227.9308553158  -222.2641886491  -218.2641886491  -212.4308553158  -202.0975219824  -189.9308553158  -181.2641886491  -174.4308553158  -170.2641886491  -164.2641886491  -160.5975219824  -160.9308553158  -160.7641886491  -161.7641886491  -161.4308553158  -158.5975219824  -155.9308553158  -154.0975219824  -153.2641886491  -151.5975219824  -153.0975219824  -156.7641886491  -162.0975219824  -164.5975219824  -164.0975219824  -163.0975219824  -160.7641886491  -156.0975219824  -152.0975219824  -145.5975219824  -138.5975219824  -134.5975219824  -132.4308553158  -130.9308553158  -127.2641886491  -124.9308553158  -123.9308553158  -123.4308553158  -119.7641886491  -114.5975219824  -109.4308553158  -107.7641886491  -107.0975219824  -108.9308553158  -108.7641886491  -107.7641886491  -109.0975219824  -109.5975219824  -108.5975219824  -105.2641886491  -102.0975219824   -99.5975219824   -97.4308553158   -96.4308553158   -95.4308553158   -94.4308553158   -94.4308553158   -93.9308553158   -93.5975219824   -90.4308553158   -88.2641886491   -88.2641886491   -86.2641886491   -85.7641886491   -84.0975219824   -83.0975219824   -80.7641886491   -77.0975219824   -72.2641886491   -66.4308553158   -62.2641886491   -60.0975219824   -58.4308553158   -53.2997601919   -48.0019984013   -43.0375699440   -37.7398081535   -32.1087130296   -27.6442845723   -22.3465227818   -18.3820943245 
    4.7482014389     4.6461497469     5.2107647216     6.4420463629     6.1733280043     3.9046096456     0.8025579536    -0.1328270717     1.0338395950     1.7005062617     2.7005062617     4.2005062617     6.3671729283     8.7005062617     8.5338395950     9.8671729283    12.7005062617    15.5338395950    16.2005062617    17.5338395950    19.8671729283    23.8671729283    27.7005062617    28.3671729283    24.7005062617    20.8671729283    18.5338395950    16.7005062617    15.5338395950    13.0338395950    11.0338395950     8.5338395950     7.3671729283     6.5338395950     6.2005062617     3.2005062617     0.3671729283    -3.4661604050    -7.2994937383    -8.1328270717    -6.4661604050    -5.1328270717    -4.2994937383    -4.6328270717    -8.2994937383   -11.4661604050   -12.9661604050   -14.1328270717   -16.1328270717   -18.6328270717   -22.7994937383   -26.6328270717   -30.4661604050   -32.4661604050   -32.7994937383   -34.9661604050   -35.2994937383   -34.1328270717   -32.1328270717   -30.7994937383   -28.4661604050   -25.6328270717   -23.7994937383   -22.2994937383   -20.7994937383   -20.2994937383   -17.6328270717   -13.2994937383    -8.4661604050    -4.4661604050    -2.4661604050    -0.7994937383    -3.4661604050    -4.9661604050    -6.9661604050   -10.4661604050   -14.9661604050   -18.6328270717   -21.6328270717   -24.1328270717   -26.9661604050   -28.1328270717   -29.4661604050   -31.6328270717   -33.9661604050   -37.2994937383   -39.4661604050   -42.1328270717   -42.2994937383   -43.1328270717   -45.7994937383   -48.2994937383   -49.6328270717   -50.1328270717   -50.2994937383   -51.2994937383   -54.2994937383   -58.1328270717   -61.6328270717   -64.7994937383   -67.1328270717   -67.6328270717   -66.6328270717   -64.1328270717   -60.2994937383   -57.2994937383   -53.1328270717   -46.9661604050   -40.6328270717   -36.1328270717   -31.9661604050   -28.6328270717   -23.7994937383   -19.2994937383   -14.2994937383   -10.6328270717    -8.7994937383    -6.9661604050    -5.9661604050    -4.2994937383    -5.7994937383    -7.7994937383    -8.1328270717    -9.1328270717    -9.4661604050   -10.4661604050   -11.4661604050   -11.4661604050   -10.6328270717   -10.2994937383    -8.7994937383    -5.6328270717    -1.6328270717     2.3671729283     6.2005062617     6.5338395950     6.2005062617     6.7005062617     4.7005062617     2.7005062617     0.7005062617    -1.1328270717    -2.6328270717    -3.1328270717    -4.4661604050    -5.7994937383   -11.6328270717   -18.4661604050   -26.1328270717   -32.1328270717   -37.1328270717   -41.1328270717   -40.1328270717   -38.1328270717   -35.1328270717   -33.7994937383   -33.9661604050   -34.2994937383   -33.9661604050   -34.6328270717   -36.4661604050   -37.4661604050   -35.4661604050   -32.2994937383   -30.7994937383   -32.1328270717   -35.7994937383   -36.6328270717   -38.4661604050   -47.4661604050   -64.1328270717   -79.7994937383  -111.7994937383  -146.6328270717  -195.7994937383  -237.1328270717  -298.2994937383  -378.9661604050  -487.2994937383  -626.1328270717  -716.9661604050  -793.9661604050  -845.2994937383  -897.1328270717  -977.7994937383 -1096.4661604050 -1236.2994937383 -1374.7994937383 -1510.9661604050 -1729.7994937383 -2005.9661604050 -2337.1328270717 -2510.1328270717 -2517.6328270717 -2471.1328270717 -2480.2994937383 -2624.6328270717 -2866.2994937383 -2980.2994937383 -2909.7994937383 -2710.9661604050 -2464.2994937383 -2327.9661604050 -2189.2994937383 -2062.1328270717 -1759.7994937383 -1376.2994937383 -1127.2994937383  -941.7994937383  -785.4661604050  -552.9661604050  -368.4661604050  -217.1328270717    31.2005062617   221.8671729283   346.5338395950   234.0338395950   -58.9661604050  -118.7994937383   112.0338395950   376.2005062617   456.7005062617   412.2005062617   482.7005062617   651.0338395950   631.0338395950   448.8671729283   441.5338395950   614.5338395950   741.2005062617   693.5338395950   555.2005062617   578.0338395950   820.2005062617   972.7005062617   897.5338395950   813.3671729283   847.5338395950   942.0338395950  1108.0338395950  1085.7005062617  1077.3671729283  1148.3671729283  1194.8671729283  1158.3671729283  1130.5338395950  1189.7005062617  1233.7005062617  1256.7005062617  1227.7005062617  1190.3671729283  1096.2005062617  1009.3671729283   893.3671729283   825.0338395950   747.3671729283   688.3671729283   685.5338395950   657.0338395950   602.0338395950   566.7005062617   556.2005062617   555.7005062617   558.2005062617   557.5338395950   558.8671729283   553.8671729283   537.0338395950   515.0338395950   495.2005062617   480.5338395950   484.3671729283   503.7005062617   529.2005062617   560.2005062617   597.2005062617   637.2005062617   678.2005062617   704.7005062617   716.7005062617   724.7005062617   738.2005062617   762.7005062617   789.5338395950   813.2005062617   839.3671729283   868.0338395950   882.5338395950   878.7005062617   871.2005062617   866.0338395950   863.7005062617   863.8671729283   863.7005062617   860.7005062617   854.7005062617   853.8671729283   853.2005062617   852.5338395950   852.5338395950   853.3671729283   852.7005062617   852.5338395950   852.0338395950   850.0338395950   846.3671729283   839.5338395950   829.3671729283   817.0338395950   804.8671729283   792.7005062617   777.8671729283   759.3671729283   742.2005062617   722.3671729283   703.3671729283   685.7005062617   666.3671729283   642.2005062617   619.3671729283   596.7005062617   569.5338395950   541.3671729283   516.2005062617   492.2005062617   464.0338395950   431.8671729283   402.7005062617   373.2005062617   341.0338395950   308.3671729283   270.8671729283   232.8671729283   197.3671729283   164.3671729283   131.0338395950   101.8671729283    74.8671729283    48.0338395950    21.3671729283    -4.9661604050   -28.2994937383   -46.9661604050   -66.2994937383   -84.1328270717   -99.6328270717  -113.2994937383  -122.2994937383  -128.1328270717  -134.1328270717  -140.2994937383  -145.4661604050  -151.7994937383  -155.4661604050  -157.6328270717  -159.9661604050  -161.7994937383  -162.1328270717  -161.2994937383  -160.1328270717  -160.2994937383  -161.1328270717  -159.9661604050  -157.2994937383  -156.4661604050  -154.4661604050  -152.4661604050  -153.2994937383  -154.6328270717  -156.2994937383  -156.4661604050  -154.6328270717  -153.1328270717  -152.9661604050  -152.7994937383  -152.1328270717  -150.4661604050  -146.2994937383  -142.7994937383  -141.4661604050  -139.7994937383  -137.9661604050  -133.6328270717  -126.9661604050  -120.2994937383  -113.2994937383  -106.4661604050  -101.1328270717   -94.9661604050   -88.7994937383   -84.4661604050   -80.1328270717   -75.6328270717   -73.2994937383   -73.1328270717   -76.6328270717   -78.6328270717   -77.1328270717   -77.1328270717   -78.7994937383   -79.4661604050   -81.2994937383   -84.2994937383   -86.6328270717   -90.4661604050   -93.9661604050   -96.4661604050   -96.6328270717   -95.4661604050   -94.9661604050   -94.7994937383   -92.1328270717   -91.1328270717   -91.7994937383   -94.1328270717   -96.9661604050  -101.9661604050  -105.7994937383  -108.4661604050  -109.7994937383  -111.2994937383  -112.1328270717  -112.9661604050  -115.7994937383  -120.1328270717  -124.4661604050  -128.1328270717  -127.1328270717  -123.7994937383  -121.2994937383  -118.7994937383  -116.1328270717  -114.2994937383  -110.9661604050  -107.9661604050  -105.4661604050  -101.4661604050   -96.4661604050   -91.6328270717   -87.1328270717   -82.7994937383   -77.9661604050   -71.4661604050   -67.6328270717   -67.4661604050   -68.7994937383   -68.7994937383   -68.4661604050   -65.1328270717   -62.2994937383   -60.7994937383   -60.2994937383   -59.4661604050   -59.2994937383   -60.7994937383   -63.9661604050   -66.9661604050   -67.9661604050   -70.6328270717   -74.1328270717   -77.6328270717   -77.7994937383   -75.7994937383   -72.2994937383   -69.7994937383   -69.4661604050   -67.7994937383   -66.4661604050   -63.9661604050   -63.7994937383   -64.1328270717   -63.7994937383   -62.7994937383   -58.1974420464   -52.5953903544   -46.8266719957   -39.7246203038   -35.2892352784   -32.6871835865   -30.9184652278   -29.3164135358 
   -0.0581395349    -2.6201550388    -4.6821705426    -6.2441860465    -7.6395348837    -9.3682170543   -10.0968992248    -8.4922480620    -4.1589147287    -1.3255813953    -1.4922480620    -2.9922480620    -2.9922480620    -4.3255813953    -6.4922480620    -8.1589147287    -7.8255813953    -5.6589147287    -3.8255813953    -3.1589147287    -3.3255813953    -1.9922480620    -1.1589147287    -3.1589147287    -7.4922480620   -11.6589147287   -12.8255813953   -12.9922480620   -12.4922480620   -11.3255813953    -9.8255813953    -8.3255813953    -7.6589147287    -8.6589147287   -12.4922480620   -16.1589147287   -16.8255813953   -17.3255813953   -16.8255813953   -16.4922480620   -16.9922480620   -16.4922480620   -15.1589147287   -11.9922480620   -12.9922480620   -12.8255813953   -11.6589147287    -9.6589147287    -7.8255813953    -5.4922480620    -1.3255813953     3.0077519380     6.0077519380     7.3410852713     6.0077519380     2.6744186047    -0.1589147287    -3.3255813953    -6.6589147287   -10.8255813953   -11.4922480620   -12.9922480620   -14.4922480620   -16.4922480620   -17.9922480620   -19.8255813953   -20.6589147287   -19.1589147287   -19.3255813953   -21.8255813953   -24.4922480620   -22.3255813953   -18.9922480620   -15.1589147287   -13.1589147287   -13.9922480620   -14.1589147287   -13.6589147287   -12.8255813953   -13.8255813953   -15.6589147287   -14.1589147287   -12.1589147287   -12.3255813953   -12.9922480620   -11.9922480620   -10.8255813953   -11.6589147287   -11.4922480620   -10.4922480620    -9.6589147287    -8.1589147287    -7.6589147287    -8.3255813953   -12.4922480620   -15.4922480620   -15.6589147287   -18.8255813953   -23.8255813953   -28.4922480620   -31.8255813953   -33.1589147287   -31.9922480620   -30.1589147287   -30.3255813953   -33.8255813953   -36.9922480620   -38.9922480620   -42.1589147287   -43.9922480620   -42.8255813953   -41.9922480620   -44.1589147287   -44.3255813953   -44.3255813953   -44.8255813953   -46.1589147287   -46.4922480620   -48.1589147287   -50.3255813953   -51.4922480620   -49.4922480620   -45.6589147287   -40.9922480620   -36.4922480620   -32.9922480620   -30.9922480620   -28.4922480620   -25.3255813953   -23.8255813953   -22.6589147287   -20.3255813953   -16.3255813953   -13.6589147287   -12.1589147287   -12.4922480620   -12.3255813953   -11.3255813953   -10.6589147287   -11.6589147287   -13.4922480620   -12.6589147287   -10.1589147287   -10.3255813953   -11.4922480620   -11.6589147287    -7.8255813953    -2.4922480620     2.5077519380     5.8410852713     9.3410852713    14.3410852713    18.3410852713    19.5077519380    19.3410852713    19.1744186047    21.3410852713    22.0077519380    21.6744186047    22.5077519380    22.8410852713    23.5077519380    21.8410852713    16.8410852713     8.3410852713    -1.8255813953   -11.3255813953   -20.6589147287   -28.4922480620   -32.4922480620   -36.8255813953   -40.3255813953   -44.9922480620   -51.9922480620   -58.3255813953   -62.1589147287   -68.3255813953   -81.6589147287   -88.4922480620  -107.1589147287  -137.4922480620  -182.3255813953  -269.1589147287  -396.8255813953  -497.9922480620  -599.4922480620  -760.3255813953  -962.9922480620 -1187.8255813953 -1357.6589147287 -1562.9922480620 -1854.4922480620 -2064.4922480620 -2243.6589147287 -2414.6589147287 -2593.8255813953 -2630.3255813953 -2517.6589147287 -2498.3255813953 -2555.4922480620 -2575.9922480620 -2531.4922480620 -2435.8255813953 -2396.4922480620 -2253.4922480620 -2010.4922480620 -1682.1589147287 -1295.9922480620 -1043.3255813953  -842.8255813953  -754.3255813953  -511.9922480620  -304.8255813953  -288.9922480620  -203.8255813953  -122.9922480620  -131.4922480620   -63.6589147287  -110.9922480620  -100.3255813953  -126.3255813953  -208.3255813953  -255.8255813953  -152.4922480620   -72.3255813953   -69.9922480620   -44.9922480620  -245.4922480620  -327.1589147287  -265.9922480620  -174.6589147287   -66.9922480620   116.6744186047   168.0077519380   345.3410852713   571.5077519380   781.5077519380   871.1744186047   790.3410852713   563.1744186047   515.3410852713   600.8410852713   746.0077519380   988.3410852713  1021.8410852713   854.3410852713   783.0077519380   803.5077519380   789.1744186047   830.8410852713   917.1744186047   979.8410852713   993.0077519380  1012.3410852713  1094.5077519380  1186.3410852713  1166.0077519380  1129.5077519380  1107.8410852713  1072.8410852713  1028.6744186047  1096.8410852713  1099.3410852713  1102.8410852713  1075.1744186047   973.0077519380   833.3410852713   724.5077519380   647.5077519380   580.6744186047   524.5077519380   477.5077519380   455.8410852713   425.6744186047   394.0077519380   383.1744186047   393.5077519380   418.5077519380   451.5077519380   500.0077519380   565.0077519380   631.1744186047   684.5077519380   716.3410852713   730.6744186047   752.0077519380   785.3410852713   823.0077519380   847.3410852713   869.5077519380   893.1744186047   905.0077519380   903.6744186047   896.8410852713   889.8410852713   880.0077519380   869.1744186047   865.3410852713   865.6744186047   872.8410852713   885.1744186047   896.8410852713   908.0077519380   920.1744186047   933.0077519380   945.6744186047   959.5077519380   973.0077519380   985.0077519380   990.0077519380   989.6744186047   988.5077519380   985.6744186047   981.0077519380   973.8410852713   963.3410852713   952.5077519380   941.1744186047   925.5077519380   904.8410852713   879.6744186047   850.1744186047   818.0077519380   786.0077519380   752.6744186047   721.3410852713   691.6744186047   656.3410852713   619.0077519380   580.8410852713   542.3410852713   503.8410852713   463.5077519380   418.3410852713   378.3410852713   345.0077519380   316.1744186047   291.8410852713   267.0077519380   239.0077519380   208.8410852713   179.1744186047   147.5077519380   120.0077519380    92.6744186047    64.1744186047    38.5077519380    15.3410852713    -3.1589147287   -15.1589147287   -28.4922480620   -47.1589147287   -68.9922480620   -91.3255813953  -110.1589147287  -124.4922480620  -135.6589147287  -145.9922480620  -154.1589147287  -159.8255813953  -162.9922480620  -164.3255813953  -166.4922480620  -167.9922480620  -169.9922480620  -170.4922480620  -171.6589147287  -172.9922480620  -171.1589147287  -171.6589147287  -173.1589147287  -175.8255813953  -178.1589147287  -181.1589147287  -183.3255813953  -185.8255813953  -189.8255813953  -191.9922480620  -194.6589147287  -194.6589147287  -197.8255813953  -203.6589147287  -206.8255813953  -206.4922480620  -208.4922480620  -210.1589147287  -212.9922480620  -214.9922480620  -217.8255813953  -220.3255813953  -221.9922480620  -223.4922480620  -223.4922480620  -224.9922480620  -224.6589147287  -227.4922480620  -227.6589147287  -228.4922480620  -230.4922480620  -233.8255813953  -236.6589147287  -236.1589147287  -234.8255813953  -233.6589147287  -233.3255813953  -231.6589147287  -230.8255813953  -229.1589147287  -227.3255813953  -228.1589147287  -230.3255813953  -233.1589147287  -235.1589147287  -231.6589147287  -225.4922480620  -219.3255813953  -211.3255813953  -204.4922480620  -198.3255813953  -193.4922480620  -188.1589147287  -184.9922480620  -180.3255813953  -176.8255813953  -173.3255813953  -169.1589147287  -165.6589147287  -159.3255813953  -153.8255813953  -154.3255813953  -157.1589147287  -159.8255813953  -163.8255813953  -168.1589147287  -173.9922480620  -179.4922480620  -183.4922480620  -184.1589147287  -183.6589147287  -183.4922480620  -181.9922480620  -179.3255813953  -174.8255813953  -172.8255813953  -170.8255813953  -169.6589147287  -167.6589147287  -164.3255813953  -159.1589147287  -153.8255813953  -146.6589147287  -142.1589147287  -139.6589147287  -138.9922480620  -140.8255813953  -143.4922480620  -148.3255813953  -149.8255813953  -151.6589147287  -153.8255813953  -156.3255813953  -156.4922480620  -158.1589147287  -160.3255813953  -164.1589147287  -168.6589147287  -173.1589147287  -173.1589147287  -171.4922480620  -171.4922480620  -170.3255813953  -166.3255813953  -159.8255813953  -149.7635658915  -139.8682170543  -129.4728682171  -118.4108527132  -107.1821705426   -95.6201550388   -85.2248062015   -74.3294573643 
  -12.1633306645   -12.1814785161   -12.3662930344   -12.0511075527   -10.9025887377   -11.2540699226   -14.7722177742   -15.9570322925   -15.4570322925   -14.9570322925   -15.7903656258   -15.9570322925   -13.6236989592   -11.6236989592   -11.2903656258   -12.1236989592   -12.7903656258   -14.7903656258   -14.6236989592   -15.2903656258   -17.6236989592   -19.2903656258   -18.1236989592   -18.4570322925   -21.4570322925   -26.2903656258   -30.7903656258   -34.1236989592   -34.6236989592   -32.9570322925   -32.6236989592   -32.7903656258   -34.7903656258   -36.9570322925   -39.2903656258   -38.6236989592   -37.2903656258   -35.4570322925   -31.9570322925   -30.9570322925   -28.4570322925   -25.6236989592   -22.6236989592   -21.1236989592   -22.7903656258   -28.1236989592   -32.2903656258   -35.6236989592   -35.1236989592   -33.6236989592   -34.9570322925   -39.2903656258   -43.9570322925   -47.2903656258   -53.7903656258   -58.4570322925   -64.2903656258   -69.1236989592   -73.6236989592   -75.1236989592   -76.1236989592   -75.1236989592   -71.9570322925   -67.7903656258   -64.4570322925   -65.4570322925   -66.2903656258   -68.1236989592   -68.7903656258   -72.4570322925   -73.2903656258   -74.1236989592   -74.2903656258   -74.9570322925   -74.9570322925   -76.7903656258   -78.1236989592   -77.9570322925   -80.7903656258   -85.4570322925   -91.7903656258   -95.7903656258   -98.2903656258   -97.7903656258   -97.6236989592   -97.2903656258  -100.6236989592  -104.2903656258  -104.6236989592  -102.7903656258  -100.9570322925   -97.7903656258   -93.7903656258   -92.4570322925   -92.2903656258   -92.4570322925   -90.7903656258   -85.7903656258   -79.9570322925   -74.6236989592   -70.4570322925   -64.4570322925   -56.7903656258   -48.1236989592   -41.1236989592   -36.1236989592   -32.9570322925   -30.2903656258   -29.2903656258   -29.4570322925   -26.1236989592   -23.1236989592   -19.1236989592   -17.9570322925   -21.4570322925   -27.2903656258   -33.4570322925   -37.7903656258   -39.7903656258   -43.4570322925   -49.4570322925   -56.4570322925   -70.2903656258  -100.6236989592  -131.6236989592  -142.6236989592  -146.4570322925  -143.2903656258  -156.6236989592  -193.4570322925  -225.9570322925  -252.1236989592  -275.2903656258  -317.1236989592  -371.2903656258  -463.2903656258  -573.2903656258  -675.6236989592  -795.4570322925  -957.9570322925 -1107.9570322925 -1331.2903656258 -1446.1236989592 -1528.7903656258 -1601.6236989592 -1750.1236989592 -1867.4570322925 -1941.4570322925 -1943.2903656258 -1880.4570322925 -1811.7903656258 -1640.7903656258 -1521.2903656258 -1433.9570322925 -1444.6236989592 -1377.9570322925 -1245.9570322925  -976.4570322925  -890.4570322925  -810.9570322925  -854.4570322925  -757.9570322925  -765.7903656258  -914.4570322925 -1110.6236989592 -1258.6236989592 -1349.7903656258 -1442.6236989592 -1459.1236989592 -1379.9570322925 -1315.2903656258 -1127.7903656258 -1032.4570322925  -939.6236989592  -908.1236989592  -764.1236989592  -485.1236989592  -390.2903656258  -147.7903656258   246.0429677075   675.8763010408  1012.2096343742  1212.3763010408  1323.8763010408  1314.3763010408  1103.5429677075  1050.2096343742   989.3763010408  1047.0429677075  1062.2096343742  1317.8763010408  1305.0429677075  1162.8763010408  1115.3763010408  1125.7096343742  1169.3763010408  1176.2096343742  1149.3763010408  1196.3763010408  1252.0429677075  1391.0429677075  1639.8763010408  1846.5429677075  1897.8763010408  1830.8763010408  1719.8763010408  1490.3763010408  1378.0429677075  1382.7096343742  1432.0429677075  1345.2096343742  1157.5429677075   940.2096343742   739.2096343742   547.8763010408   386.5429677075   294.5429677075   247.3763010408   230.0429677075   231.2096343742   244.8763010408   264.7096343742   291.7096343742   327.5429677075   366.0429677075   408.3763010408   450.0429677075   495.2096343742   544.8763010408   615.3763010408   687.5429677075   748.2096343742   774.5429677075   780.0429677075   775.5429677075   772.7096343742   772.3763010408   772.3763010408   773.5429677075   771.5429677075   772.7096343742   776.2096343742   784.0429677075   799.8763010408   816.7096343742   825.5429677075   834.7096343742   846.0429677075   851.8763010408   857.5429677075   866.5429677075   875.0429677075   882.3763010408   886.3763010408   885.5429677075   885.0429677075   881.3763010408   872.2096343742   861.5429677075   854.2096343742   847.3763010408   836.0429677075   820.0429677075   803.2096343742   792.3763010408   779.8763010408   758.5429677075   732.0429677075   704.3763010408   678.2096343742   649.0429677075   622.0429677075   594.5429677075   565.3763010408   533.5429677075   492.7096343742   448.0429677075   407.0429677075   367.5429677075   324.7096343742   277.3763010408   226.8763010408   184.3763010408   149.3763010408   116.0429677075    81.8763010408    52.8763010408    19.3763010408   -13.9570322925   -43.7903656258   -71.2903656258   -95.9570322925  -119.9570322925  -139.9570322925  -158.6236989592  -175.9570322925  -191.9570322925  -205.1236989592  -219.6236989592  -236.1236989592  -251.9570322925  -265.7903656258  -279.2903656258  -285.4570322925  -288.7903656258  -290.4570322925  -291.9570322925  -291.6236989592  -290.4570322925  -291.6236989592  -294.6236989592  -300.1236989592  -305.1236989592  -310.1236989592  -313.7903656258  -315.6236989592  -317.2903656258  -316.1236989592  -313.9570322925  -314.7903656258  -316.6236989592  -319.6236989592  -321.7903656258  -325.7903656258  -327.7903656258  -329.2903656258  -327.6236989592  -321.2903656258  -314.9570322925  -309.9570322925  -306.9570322925  -305.7903656258  -302.6236989592  -299.4570322925  -296.7903656258  -294.2903656258  -291.9570322925  -288.9570322925  -284.7903656258  -280.7903656258  -280.1236989592  -278.2903656258  -276.1236989592  -274.7903656258  -273.6236989592  -270.9570322925  -266.6236989592  -258.6236989592  -251.1236989592  -244.9570322925  -239.4570322925  -234.2903656258  -227.9570322925  -219.7903656258  -211.4570322925  -204.6236989592  -196.2903656258  -187.4570322925  -177.6236989592  -169.6236989592  -164.1236989592  -161.4570322925  -158.2903656258  -156.6236989592  -154.9570322925  -154.1236989592  -153.4570322925  -152.7903656258  -152.1236989592  -152.2903656258  -152.6236989592  -151.7903656258  -150.1236989592  -147.7903656258  -146.7903656258  -145.6236989592  -143.7903656258  -139.7903656258  -134.1236989592  -128.7903656258  -125.4570322925  -121.6236989592  -116.9570322925  -113.7903656258  -112.6236989592  -111.6236989592  -110.9570322925  -110.2903656258  -108.9570322925  -108.9570322925  -109.4570322925  -108.6236989592  -107.7903656258  -104.4570322925  -103.2903656258  -102.1236989592  -100.6236989592   -98.7903656258   -97.6236989592   -94.6236989592   -90.9570322925   -88.1236989592   -84.9570322925   -81.4570322925   -80.4570322925   -81.4570322925   -82.1236989592   -84.2903656258   -85.6236989592   -88.4570322925   -91.7903656258   -96.4570322925   -98.9570322925  -101.7903656258  -104.4570322925  -106.7903656258  -107.9570322925  -107.6236989592  -108.7903656258  -108.4570322925  -106.7903656258  -104.6236989592  -102.4570322925   -98.7903656258   -94.1236989592   -90.2903656258   -83.4570322925   -77.6236989592   -74.1236989592   -71.4570322925   -68.6236989592   -64.4570322925   -60.1236989592   -55.6236989592   -51.4570322925   -49.9570322925   -49.6236989592   -46.9570322925   -44.9570322925   -43.7903656258   -42.9570322925   -43.1236989592   -45.2903656258   -44.9570322925   -43.9570322925   -43.4570322925   -41.1236989592   -39.9570322925   -39.2903656258   -39.7903656258   -42.7903656258   -45.4570322925   -43.2903656258   -40.9570322925   -38.1236989592   -35.7903656258   -34.2903656258   -33.1236989592   -32.6236989592   -32.4570322925   -32.4570322925   -31.2903656258   -29.1236989592   -28.2903656258   -28.2903656258   -28.6236989592   -25.6236989592   -20.9570322925   -18.4570322925   -17.1236989592   -16.4570322925   -15.2903656258   -14.1236989592   -12.2722177742    -9.7540699226    -7.5692554043    -5.0511075527    -2.5329597011    -2.3481451828    -1.4966639979     0.0214838537 
   14.3422738191    18.5469709101    21.0850013344    23.2896984254    26.1610621831    27.8657592741    30.9037896984    35.2751534561    38.7751534561    41.4418201228    46.2751534561    50.9418201228    54.2751534561    56.1084867894    56.4418201228    53.6084867894    52.4418201228    51.4418201228    51.6084867894    52.2751534561    51.1084867894    52.2751534561    52.9418201228    50.9418201228    48.7751534561    46.9418201228    44.2751534561    43.1084867894    43.7751534561    44.4418201228    46.4418201228    48.7751534561    48.2751534561    48.2751534561    48.4418201228    48.4418201228    49.4418201228    49.2751534561    48.4418201228    48.4418201228    47.9418201228    47.7751534561    46.4418201228    46.2751534561    46.1084867894    45.2751534561    45.1084867894    46.9418201228    50.7751534561    53.9418201228    56.4418201228    58.4418201228    60.4418201228    61.4418201228    61.6084867894    61.4418201228    61.2751534561    61.9418201228    64.6084867894    65.4418201228    64.1084867894    66.2751534561    68.7751534561    70.7751534561    71.7751534561    71.1084867894    70.2751534561    70.2751534561    70.7751534561    71.7751534561    73.1084867894    75.6084867894    78.7751534561    80.7751534561    82.4418201228    83.1084867894    85.4418201228    87.6084867894    90.2751534561    89.9418201228    88.6084867894    87.1084867894    88.2751534561    88.1084867894    87.7751534561    89.1084867894    91.1084867894    93.9418201228    96.6084867894    98.6084867894    97.6084867894    97.2751534561    96.4418201228    94.7751534561    92.6084867894    92.9418201228    94.6084867894    97.2751534561    98.9418201228   102.7751534561   105.2751534561   105.1084867894   104.1084867894   102.7751534561   100.4418201228    98.4418201228    98.6084867894    97.9418201228    98.2751534561    97.2751534561    94.1084867894    90.7751534561    88.2751534561    86.7751534561    83.6084867894    79.6084867894    77.6084867894    76.4418201228    75.6084867894    75.2751534561    75.6084867894    75.4418201228    74.9418201228    76.6084867894    74.6084867894    74.7751534561    76.2751534561    78.7751534561    80.4418201228    80.4418201228    80.4418201228    80.6084867894    81.7751534561    85.4418201228    90.6084867894    94.1084867894    96.4418201228    99.6084867894   102.7751534561   104.1084867894   105.9418201228   107.6084867894   112.9418201228   117.9418201228   120.9418201228   123.9418201228   124.7751534561   112.6084867894   107.1084867894    99.2751534561    90.1084867894    84.4418201228    87.1084867894    93.4418201228    89.6084867894    81.2751534561    75.2751534561    65.9418201228    40.4418201228    11.7751534561   -35.5581798772  -102.8915132106  -151.0581798772  -175.3915132106  -217.7248465439  -275.7248465439  -341.3915132106  -461.8915132106  -613.3915132106  -730.3915132106  -813.3915132106  -918.0581798772  -973.7248465439 -1033.5581798772 -1120.7248465439 -1203.2248465439 -1355.5581798772 -1533.7248465439 -1584.5581798772 -1592.2248465439 -1541.8915132106 -1436.3915132106 -1350.8915132106 -1158.2248465439  -920.0581798772  -726.2248465439  -598.7248465439  -511.5581798772  -556.2248465439  -664.0581798772  -725.0581798772  -674.3915132106  -443.3915132106  -212.2248465439  -280.5581798772  -399.2248465439  -472.3915132106  -524.3915132106  -549.8915132106  -781.3915132106 -1113.0581798772 -1272.3915132106 -1283.5581798772 -1210.5581798772 -1111.7248465439  -812.8915132106  -652.2248465439  -650.8915132106  -667.2248465439  -555.7248465439  -320.5581798772  -147.2248465439     5.9418201228   107.1084867894   197.9418201228   404.9418201228   653.6084867894   785.1084867894   771.6084867894   645.6084867894   735.7751534561   683.7751534561   730.1084867894   784.7751534561   783.2751534561   677.4418201228   630.6084867894   744.1084867894   792.9418201228   837.6084867894   854.1084867894   894.9418201228   996.2751534561  1039.7751534561  1116.4418201228  1273.6084867894  1264.7751534561  1253.6084867894  1267.4418201228  1306.6084867894  1319.4418201228  1352.2751534561  1351.4418201228  1243.1084867894  1126.7751534561  1008.6084867894   933.2751534561   870.1084867894   780.2751534561   689.7751534561   603.9418201228   539.1084867894   490.7751534561   463.9418201228   446.6084867894   440.4418201228   442.4418201228   448.1084867894   463.6084867894   483.7751534561   502.6084867894   519.9418201228   536.2751534561   551.2751534561   570.6084867894   598.6084867894   629.2751534561   656.9418201228   677.6084867894   689.7751534561   699.7751534561   710.1084867894   723.7751534561   733.2751534561   737.9418201228   740.6084867894   742.9418201228   749.7751534561   757.2751534561   764.9418201228   771.1084867894   780.6084867894   790.4418201228   796.1084867894   798.2751534561   798.9418201228   798.6084867894   799.1084867894   797.9418201228   799.1084867894   801.4418201228   803.4418201228   805.9418201228   803.2751534561   797.1084867894   786.1084867894   773.9418201228   756.4418201228   736.7751534561   717.2751534561   693.9418201228   663.2751534561   630.2751534561   595.1084867894   556.2751534561   514.2751534561   476.6084867894   444.7751534561   414.2751534561   380.9418201228   343.9418201228   307.2751534561   269.6084867894   233.6084867894   193.6084867894   148.6084867894   106.2751534561    74.6084867894    48.2751534561    23.1084867894    -1.3915132106   -24.5581798772   -51.2248465439   -81.7248465439  -115.5581798772  -148.5581798772  -178.2248465439  -203.2248465439  -229.0581798772  -253.3915132106  -274.2248465439  -286.5581798772  -296.0581798772  -307.3915132106  -321.0581798772  -336.2248465439  -349.2248465439  -358.5581798772  -367.0581798772  -376.3915132106  -383.2248465439  -386.5581798772  -389.3915132106  -393.8915132106  -394.8915132106  -395.7248465439  -392.8915132106  -393.0581798772  -395.0581798772  -397.7248465439  -399.3915132106  -400.7248465439  -400.5581798772  -400.0581798772  -400.5581798772  -400.2248465439  -401.2248465439  -404.5581798772  -409.0581798772  -412.8915132106  -417.7248465439  -423.0581798772  -429.3915132106  -435.2248465439  -438.8915132106  -441.2248465439  -442.8915132106  -444.2248465439  -446.3915132106  -450.3915132106  -453.8915132106  -456.0581798772  -456.0581798772  -453.7248465439  -450.7248465439  -448.0581798772  -445.0581798772  -442.5581798772  -441.2248465439  -441.0581798772  -442.8915132106  -444.2248465439  -445.5581798772  -444.0581798772  -441.8915132106  -439.2248465439  -434.7248465439  -429.5581798772  -426.7248465439  -425.5581798772  -423.2248465439  -420.8915132106  -417.5581798772  -412.3915132106  -407.7248465439  -403.0581798772  -398.5581798772  -394.8915132106  -392.0581798772  -392.0581798772  -392.7248465439  -392.3915132106  -394.0581798772  -395.2248465439  -398.5581798772  -402.0581798772  -405.2248465439  -406.8915132106  -406.0581798772  -405.7248465439  -404.8915132106  -403.8915132106  -401.8915132106  -399.8915132106  -396.8915132106  -393.2248465439  -390.7248465439  -387.7248465439  -382.3915132106  -379.2248465439  -375.3915132106  -371.8915132106  -368.7248465439  -366.5581798772  -367.5581798772  -369.3915132106  -371.0581798772  -371.2248465439  -372.0581798772  -372.2248465439  -374.8915132106  -377.7248465439  -375.7248465439  -372.2248465439  -369.0581798772  -365.5581798772  -359.0581798772  -351.8915132106  -343.0581798772  -335.2248465439  -328.7248465439  -323.7248465439  -319.7248465439  -315.3915132106  -311.5581798772  -307.8915132106  -301.7248465439  -295.0581798772  -291.5581798772  -290.7248465439  -293.8915132106  -297.3915132106  -300.0581798772  -300.3915132106  -302.5581798772  -305.8915132106  -307.8915132106  -306.5581798772  -303.7248465439  -301.3915132106  -298.5581798772  -296.5581798772  -294.0581798772  -291.3915132106  -288.5581798772  -286.8915132106  -283.0581798772  -277.0581798772  -271.0581798772  -268.3915132106  -267.8915132106  -266.8915132106  -265.7248465439  -248.4295436349  -231.3009073926  -214.3389378169  -196.8769682413  -179.2483319989  -163.1196957566  -147.1577261809  -131.1957566053 
    1.1534772182     0.2631228351    -0.4605648814    -0.0175859313     2.7587263523     5.0350386358     5.8113509193     5.5876632028     4.7543298694     2.7543298694     1.4209965361     1.5876632028     3.2543298694     4.7543298694     6.0876632028     9.4209965361    13.0876632028    16.2543298694    15.7543298694    14.4209965361    13.4209965361    14.0876632028    15.9209965361    17.0876632028    18.9209965361    21.4209965361    24.5876632028    25.9209965361    29.4209965361    32.2543298694    36.4209965361    40.4209965361    42.9209965361    41.4209965361    42.4209965361    44.5876632028    43.7543298694    42.2543298694    40.7543298694    41.5876632028    42.4209965361    44.5876632028    46.4209965361    46.7543298694    45.2543298694    44.0876632028    41.5876632028    37.2543298694    33.0876632028    35.4209965361    39.9209965361    43.7543298694    46.9209965361    47.5876632028    48.9209965361    50.2543298694    50.0876632028    48.0876632028    43.4209965361    40.9209965361    38.5876632028    36.5876632028    34.2543298694    32.9209965361    30.9209965361    27.5876632028    25.0876632028    22.2543298694    18.4209965361    18.7543298694    20.5876632028    21.4209965361    21.9209965361    25.0876632028    32.2543298694    36.7543298694    42.0876632028    45.9209965361    49.4209965361    53.0876632028    57.7543298694    60.7543298694    62.5876632028    65.5876632028    68.7543298694    68.9209965361    66.0876632028    62.9209965361    61.9209965361    59.7543298694    56.0876632028    52.5876632028    47.2543298694    41.9209965361    36.5876632028    30.7543298694    26.7543298694    25.4209965361    23.0876632028    17.9209965361    15.5876632028    15.2543298694    15.0876632028    15.4209965361    16.5876632028    19.2543298694    22.2543298694    25.2543298694    25.9209965361    24.2543298694    23.5876632028    25.0876632028    25.9209965361    24.7543298694    22.5876632028    24.2543298694    27.5876632028    29.2543298694    31.5876632028    31.9209965361    31.5876632028    29.9209965361    28.0876632028    26.7543298694    27.4209965361    30.2543298694    35.7543298694    41.7543298694    45.5876632028    47.9209965361    50.5876632028    51.0876632028    47.5876632028    45.0876632028    43.7543298694    45.7543298694    45.4209965361    41.9209965361    38.0876632028    33.0876632028    32.5876632028    33.4209965361    27.4209965361    19.4209965361    14.7543298694    15.0876632028    18.5876632028    17.4209965361    18.7543298694    22.9209965361    26.5876632028    26.2543298694    29.5876632028    36.5876632028    44.0876632028    53.0876632028    58.7543298694    59.9209965361    59.7543298694    59.9209965361    60.4209965361    61.7543298694    55.4209965361    49.9209965361    41.2543298694    12.2543298694   -11.0790034639   -27.7456701306   -68.9123367972   -98.9123367972  -130.5790034639  -170.0790034639  -200.4123367972  -204.9123367972  -207.5790034639  -220.4123367972  -220.0790034639  -228.4123367972  -238.9123367972  -241.4123367972  -235.5790034639  -201.4123367972  -210.7456701306  -285.9123367972  -334.7456701306  -451.5790034639  -633.2456701306  -790.4123367972 -1036.4123367972 -1356.2456701306 -1624.0790034639 -1850.4123367972 -2059.5790034639 -2348.4123367972 -2533.4123367972 -2662.0790034639 -2859.7456701306 -3036.0790034639 -3086.7456701306 -2966.7456701306 -2742.5790034639 -2520.4123367972 -2302.7456701306 -2108.2456701306 -1860.9123367972 -1675.0790034639 -1445.7456701306 -1142.0790034639  -862.5790034639  -664.2456701306  -586.2456701306  -526.2456701306  -306.4123367972  -199.2456701306  -128.9123367972  -140.5790034639  -434.7456701306  -684.5790034639  -690.4123367972  -560.9123367972  -393.5790034639  -215.7456701306  -258.4123367972  -430.5790034639  -474.7456701306  -339.7456701306  -111.4123367972    86.9209965361   141.4209965361   267.7543298694   473.2543298694   642.7543298694   889.9209965361  1051.5876632028  1019.0876632028   903.9209965361   773.7543298694   798.4209965361   926.7543298694  1099.5876632028  1140.7543298694  1197.2543298694  1152.5876632028  1023.7543298694   934.7543298694   875.2543298694   758.5876632028   653.4209965361   568.0876632028   638.4209965361   728.9209965361   768.2543298694   849.4209965361   907.9209965361   969.0876632028   982.4209965361   971.9209965361   923.9209965361   922.4209965361  1001.5876632028  1087.9209965361  1153.4209965361  1154.2543298694  1151.5876632028  1218.2543298694  1219.4209965361  1215.9209965361  1212.0876632028  1164.4209965361  1085.0876632028  1025.4209965361   992.2543298694   976.2543298694   969.9209965361   949.0876632028   922.4209965361   892.9209965361   858.4209965361   813.4209965361   763.7543298694   718.7543298694   685.4209965361   655.7543298694   634.9209965361   619.2543298694   607.5876632028   599.0876632028   589.9209965361   586.4209965361   583.4209965361   579.4209965361   570.7543298694   564.7543298694   562.0876632028   562.5876632028   568.5876632028   579.5876632028   589.4209965361   602.0876632028   614.4209965361   629.2543298694   644.9209965361   657.7543298694   674.0876632028   685.9209965361   696.7543298694   709.0876632028   721.4209965361   731.0876632028   739.9209965361   747.5876632028   755.0876632028   759.7543298694   761.4209965361   763.0876632028   760.0876632028   752.0876632028   743.2543298694   734.5876632028   719.0876632028   699.7543298694   678.4209965361   655.7543298694   631.7543298694   610.4209965361   588.9209965361   559.0876632028   523.2543298694   482.7543298694   447.7543298694   413.9209965361   381.9209965361   350.0876632028   312.9209965361   276.2543298694   243.4209965361   213.4209965361   182.4209965361   148.7543298694   117.0876632028    85.2543298694    52.4209965361    26.2543298694     5.2543298694   -14.2456701306   -37.2456701306   -63.2456701306   -87.7456701306  -112.5790034639  -134.2456701306  -152.4123367972  -168.9123367972  -183.0790034639  -196.9123367972  -208.5790034639  -220.4123367972  -233.0790034639  -242.5790034639  -248.5790034639  -255.2456701306  -255.7456701306  -253.7456701306  -248.9123367972  -246.9123367972  -240.5790034639  -236.2456701306  -236.2456701306  -234.9123367972  -233.5790034639  -233.7456701306  -232.2456701306  -228.4123367972  -224.4123367972  -221.4123367972  -220.5790034639  -216.0790034639  -209.5790034639  -205.9123367972  -205.7456701306  -205.0790034639  -205.9123367972  -204.4123367972  -198.4123367972  -196.7456701306  -193.7456701306  -185.2456701306  -177.9123367972  -173.9123367972  -171.9123367972  -169.9123367972  -166.5790034639  -164.2456701306  -165.7456701306  -168.4123367972  -172.2456701306  -171.2456701306  -168.9123367972  -165.5790034639  -165.7456701306  -164.5790034639  -165.7456701306  -166.7456701306  -167.2456701306  -164.2456701306  -159.4123367972  -154.9123367972  -151.7456701306  -151.4123367972  -149.7456701306  -148.5790034639  -145.2456701306  -145.9123367972  -149.0790034639  -152.9123367972  -154.4123367972  -153.9123367972  -153.0790034639  -155.9123367972  -157.0790034639  -159.0790034639  -160.0790034639  -158.7456701306  -157.4123367972  -153.9123367972  -153.5790034639  -151.5790034639  -149.4123367972  -146.7456701306  -144.0790034639  -143.0790034639  -142.5790034639  -142.5790034639  -141.5790034639  -137.9123367972  -135.9123367972  -136.2456701306  -135.4123367972  -136.4123367972  -138.2456701306  -140.0790034639  -139.0790034639  -137.7456701306  -138.2456701306  -139.0790034639  -140.0790034639  -138.5790034639  -136.7456701306  -136.2456701306  -138.0790034639  -138.9123367972  -139.5790034639  -139.4123367972  -140.7456701306  -139.7456701306  -137.4123367972  -133.5790034639  -129.7456701306  -123.9123367972  -116.9123367972  -110.5790034639  -102.0790034639   -94.4123367972   -87.7456701306   -79.7456701306   -69.7456701306   -63.0790034639   -55.9123367972   -46.9123367972   -39.4123367972   -35.2456701306   -32.9123367972   -32.5790034639   -35.5790034639   -34.0219824141   -32.2982946976   -30.4079403144   -29.1842525979   -27.7938982148   -26.0702104983   -24.8465227818   -24.2895017319 
   -6.8585131894    -5.7316813216    -4.2715161204    -3.1446842526    -2.0178523847    -2.0576871836    -2.5975219824    -1.3040234479     0.8626432188     1.5293098854     2.5293098854     5.1959765521     5.1959765521     5.6959765521     4.1959765521     2.6959765521     1.0293098854     0.0293098854    -0.9706901146    -3.6373567812    -5.1373567812    -2.9706901146    -1.1373567812    -1.3040234479    -1.3040234479     0.0293098854    -0.1373567812     0.3626432188     2.8626432188     5.3626432188     9.3626432188    14.8626432188    18.0293098854    17.6959765521    14.5293098854    12.8626432188    11.0293098854     8.3626432188     6.0293098854     3.8626432188     2.6959765521     2.5293098854     3.6959765521     3.1959765521     0.8626432188    -1.4706901146    -3.8040234479    -6.1373567812    -7.1373567812    -6.8040234479    -3.6373567812     1.6959765521     6.8626432188     8.8626432188     9.3626432188     9.8626432188     9.1959765521     9.6959765521     9.8626432188    10.3626432188    10.1959765521    12.0293098854    15.8626432188    19.0293098854    20.6959765521    21.1959765521    20.5293098854    18.5293098854    16.6959765521    15.3626432188    14.8626432188    15.0293098854    14.8626432188    12.0293098854     7.6959765521     4.3626432188     0.3626432188    -6.1373567812   -16.1373567812   -26.8040234479   -42.6373567812   -46.1373567812   -44.1373567812   -40.8040234479   -36.9706901146   -32.4706901146   -27.9706901146   -26.1373567812   -24.9706901146   -22.9706901146   -20.1373567812   -22.1373567812   -23.1373567812   -22.3040234479   -18.4706901146   -12.8040234479     0.0293098854     0.1959765521    -3.8040234479    -8.9706901146   -14.1373567812   -16.8040234479   -18.8040234479   -23.9706901146   -28.6373567812   -30.6373567812   -27.8040234479   -20.3040234479   -11.6373567812    -5.8040234479    -1.1373567812     1.6959765521     3.1959765521     7.0293098854     9.3626432188     9.3626432188     8.0293098854     6.0293098854     4.8626432188     6.5293098854    10.0293098854    11.1959765521     7.0293098854     3.3626432188    -1.3040234479    -4.3040234479    -7.6373567812    -9.3040234479   -11.1373567812   -10.4706901146    -9.3040234479    -8.1373567812    -6.9706901146    -9.3040234479   -13.1373567812   -15.4706901146   -17.4706901146   -20.4706901146   -22.1373567812   -25.1373567812   -28.3040234479   -30.3040234479   -30.6373567812   -34.1373567812   -37.3040234479   -40.8040234479   -42.4706901146   -43.6373567812   -44.6373567812   -43.8040234479   -40.6373567812   -34.6373567812   -29.8040234479   -23.6373567812   -19.8040234479   -16.9706901146   -13.6373567812    -9.9706901146    -8.1373567812    -6.8040234479    -5.9706901146    -7.9706901146    -9.4706901146    -7.1373567812    -5.6373567812    -6.8040234479    -7.8040234479    -8.9706901146    -9.9706901146   -17.9706901146   -24.9706901146   -30.1373567812   -36.1373567812   -57.1373567812   -84.1373567812  -101.4706901146  -113.8040234479  -130.4706901146  -153.6373567812  -208.9706901146  -297.9706901146  -408.3040234479  -511.8040234479  -627.4706901146  -751.8040234479  -965.1373567812 -1268.1373567812 -1545.9706901146 -1736.8040234479 -1975.1373567812 -2281.1373567812 -2643.6373567812 -2938.3040234479 -3252.3040234479 -3607.1373567812 -3923.4706901146 -3922.8040234479 -3589.3040234479 -3264.8040234479 -3006.9706901146 -2661.6373567812 -2291.6373567812 -1889.1373567812 -1447.4706901146 -1079.1373567812  -733.4706901146  -226.4706901146   278.6959765521   521.6959765521   708.8626432188   885.6959765521  1151.1959765521  1167.3626432188   778.3626432188   409.6959765521   238.0293098854   -98.1373567812  -331.8040234479  -311.3040234479  -259.4706901146  -235.8040234479  -173.6373567812  -243.9706901146  -312.8040234479  -241.4706901146  -109.1373567812   280.8626432188   502.3626432188   658.5293098854   908.6959765521  1117.5293098854  1049.1959765521  1158.1959765521  1445.1959765521  1537.5293098854  1532.5293098854  1362.0293098854  1153.6959765521  1102.3626432188  1233.1959765521  1459.6959765521  1674.8626432188  1611.6959765521  1538.5293098854  1418.6959765521  1375.0293098854  1384.3626432188  1554.0293098854  1615.1959765521  1463.0293098854  1334.1959765521  1214.6959765521  1278.1959765521  1427.1959765521  1450.8626432188  1333.6959765521  1163.3626432188  1016.3626432188   938.3626432188   934.8626432188  1007.0293098854   991.6959765521   921.1959765521   836.8626432188   790.1959765521   772.8626432188   730.0293098854   671.5293098854   602.1959765521   534.6959765521   490.8626432188   471.3626432188   467.6959765521   472.3626432188   484.3626432188   497.8626432188   512.3626432188   537.8626432188   587.6959765521   646.6959765521   683.6959765521   694.8626432188   709.0293098854   731.0293098854   765.3626432188   795.8626432188   814.8626432188   817.8626432188   813.6959765521   808.1959765521   803.6959765521   806.8626432188   812.0293098854   821.6959765521   831.1959765521   839.6959765521   849.0293098854   857.5293098854   865.0293098854   867.8626432188   865.6959765521   864.3626432188   864.6959765521   864.3626432188   862.1959765521   861.0293098854   861.3626432188   859.6959765521   855.8626432188   846.8626432188   837.3626432188   823.8626432188   808.0293098854   792.8626432188   779.8626432188   767.8626432188   756.0293098854   739.0293098854   719.1959765521   697.3626432188   673.1959765521   648.5293098854   619.8626432188   587.6959765521   556.0293098854   524.8626432188   492.5293098854   466.5293098854   441.0293098854   411.3626432188   375.3626432188   339.3626432188   303.5293098854   270.1959765521   237.0293098854   204.8626432188   175.0293098854   145.1959765521   115.8626432188    89.5293098854    64.0293098854    40.0293098854    15.6959765521    -8.4706901146   -31.8040234479   -51.4706901146   -67.1373567812   -81.9706901146   -96.9706901146  -111.3040234479  -125.1373567812  -136.9706901146  -149.6373567812  -164.1373567812  -178.1373567812  -192.4706901146  -205.1373567812  -215.3040234479  -223.6373567812  -232.8040234479  -239.1373567812  -243.1373567812  -246.1373567812  -248.1373567812  -250.9706901146  -252.6373567812  -252.6373567812  -252.1373567812  -250.3040234479  -247.4706901146  -244.4706901146  -240.6373567812  -237.3040234479  -236.4706901146  -235.8040234479  -234.3040234479  -233.8040234479  -235.8040234479  -240.4706901146  -244.6373567812  -247.3040234479  -249.4706901146  -250.4706901146  -253.1373567812  -256.1373567812  -258.1373567812  -256.8040234479  -256.1373567812  -257.4706901146  -255.6373567812  -253.9706901146  -253.3040234479  -252.1373567812  -249.4706901146  -246.3040234479  -242.3040234479  -237.1373567812  -232.8040234479  -229.1373567812  -225.9706901146  -222.1373567812  -218.6373567812  -218.1373567812  -218.6373567812  -218.4706901146  -218.4706901146  -217.8040234479  -214.6373567812  -213.3040234479  -213.1373567812  -212.9706901146  -212.4706901146  -211.6373567812  -211.8040234479  -211.9706901146  -210.4706901146  -209.6373567812  -208.4706901146  -209.4706901146  -210.9706901146  -210.9706901146  -213.3040234479  -216.3040234479  -218.9706901146  -219.4706901146  -219.9706901146  -220.6373567812  -221.6373567812  -223.3040234479  -223.6373567812  -223.9706901146  -223.8040234479  -222.4706901146  -221.1373567812  -218.9706901146  -216.3040234479  -213.3040234479  -208.6373567812  -201.4706901146  -195.8040234479  -192.9706901146  -187.6373567812  -180.1373567812  -173.8040234479  -169.9706901146  -166.1373567812  -160.4706901146  -154.3040234479  -147.9706901146  -143.4706901146  -138.9706901146  -134.9706901146  -132.6373567812  -133.3040234479  -135.8040234479  -136.4706901146  -136.3040234479  -137.8040234479  -140.4706901146  -142.4706901146  -142.3040234479  -141.4706901146  -140.4706901146  -140.1373567812  -141.1373567812  -141.1373567812  -138.1373567812  -133.4706901146  -128.9706901146  -122.8040234479  -115.3040234479  -110.6373567812  -106.3040234479   -96.0975219824   -86.5576871836   -76.6845190514   -67.4780175859   -59.4381827871   -53.8983479883   -48.8585131894   -42.9853450573 
   46.8936482519    50.9188684281    56.7774219376    64.3026421137    72.6611956232    81.6864157993    89.5449693088    96.2368561516    97.5701894849    99.7368561516   100.7368561516    99.2368561516    98.7368561516    97.7368561516    96.5701894849    94.4035228183    93.4035228183    91.7368561516    89.7368561516    87.4035228183    82.7368561516    76.9035228183    71.5701894849    67.0701894849    62.7368561516    57.7368561516    54.4035228183    54.4035228183    54.2368561516    56.9035228183    60.2368561516    62.9035228183    65.0701894849    67.4035228183    68.4035228183    67.0701894849    68.7368561516    71.4035228183    72.9035228183    75.5701894849    78.7368561516    82.2368561516    84.2368561516    85.4035228183    87.5701894849    86.7368561516    83.5701894849    82.7368561516    82.2368561516    80.9035228183    79.5701894849    78.9035228183    75.2368561516    72.2368561516    72.0701894849    70.0701894849    68.0701894849    67.2368561516    67.9035228183    66.9035228183    65.7368561516    62.7368561516    61.2368561516    60.2368561516    60.0701894849    58.9035228183    58.2368561516    56.9035228183    57.9035228183    60.2368561516    61.2368561516    62.5701894849    61.7368561516    59.7368561516    57.5701894849    55.5701894849    54.4035228183    55.9035228183    58.4035228183    60.5701894849    61.7368561516    65.4035228183    69.4035228183    75.0701894849    81.0701894849    82.7368561516    83.9035228183    87.0701894849    92.0701894849    96.9035228183   100.5701894849   105.7368561516   109.5701894849   112.9035228183   113.9035228183   115.7368561516   116.2368561516   114.0701894849   112.0701894849   110.7368561516   108.2368561516   106.2368561516   104.9035228183   102.2368561516    98.2368561516    93.7368561516    89.2368561516    85.0701894849    82.2368561516    80.4035228183    79.2368561516    74.2368561516    72.2368561516    72.2368561516    71.0701894849    67.0701894849    61.7368561516    57.5701894849    53.0701894849    47.4035228183    40.4035228183    36.7368561516    33.5701894849    30.5701894849    30.2368561516    28.0701894849    27.2368561516    30.9035228183    35.5701894849    39.5701894849    42.7368561516    44.7368561516    47.0701894849    49.7368561516    51.9035228183    46.2368561516    36.2368561516    25.0701894849    14.0701894849    -1.5964771817   -38.7631438484   -82.9298105151  -114.5964771817  -141.0964771817  -176.5964771817  -209.2631438484  -226.5964771817  -235.2631438484  -262.2631438484  -293.4298105151  -330.9298105151  -346.7631438484  -341.4298105151  -351.5964771817  -375.5964771817  -373.5964771817  -344.0964771817  -280.9298105151  -251.2631438484  -269.4298105151  -306.2631438484  -361.4298105151  -498.0964771817  -643.7631438484  -739.5964771817  -881.0964771817  -962.0964771817 -1074.4298105151 -1212.4298105151 -1291.4298105151 -1384.0964771817 -1574.9298105151 -1826.7631438484 -1943.0964771817 -1946.5964771817 -1960.4298105151 -1963.2631438484 -1971.4298105151 -1947.4298105151 -1800.7631438484 -1639.4298105151 -1513.4298105151 -1369.4298105151 -1193.9298105151  -984.2631438484  -764.5964771817  -614.0964771817  -535.5964771817  -443.2631438484  -559.2631438484  -761.9298105151  -786.9298105151  -791.9298105151  -911.9298105151 -1076.5964771817 -1180.0964771817 -1171.5964771817 -1000.0964771817  -950.9298105151  -822.4298105151  -696.4298105151  -729.0964771817  -786.4298105151  -693.4298105151  -377.0964771817    80.9035228183   415.0701894849   582.4035228183   798.7368561516  1090.7368561516  1422.5701894849  1593.9035228183  1607.5701894849  1550.4035228183  1589.4035228183  1511.0701894849  1422.4035228183  1439.5701894849  1544.2368561516  1647.4035228183  1568.5701894849  1400.2368561516  1341.0701894849  1305.0701894849  1199.2368561516  1148.9035228183  1133.2368561516  1080.2368561516  1008.2368561516   917.7368561516   795.5701894849   712.2368561516   639.0701894849   577.4035228183   554.5701894849   538.0701894849   521.2368561516   505.4035228183   500.0701894849   502.0701894849   512.9035228183   521.9035228183   532.0701894849   554.9035228183   595.9035228183   649.4035228183   691.4035228183   722.7368561516   734.5701894849   732.7368561516   724.0701894849   707.7368561516   690.0701894849   671.0701894849   649.5701894849   637.5701894849   629.5701894849   629.7368561516   634.2368561516   643.0701894849   654.7368561516   665.5701894849   679.5701894849   691.9035228183   701.4035228183   710.9035228183   724.9035228183   741.2368561516   753.0701894849   760.2368561516   766.0701894849   767.9035228183   771.7368561516   779.2368561516   786.5701894849   795.5701894849   802.2368561516   805.5701894849   801.5701894849   794.7368561516   788.4035228183   778.9035228183   764.5701894849   751.7368561516   738.2368561516   716.4035228183   695.5701894849   689.5701894849   687.4035228183   677.9035228183   661.7368561516   639.0701894849   612.2368561516   583.2368561516   551.4035228183   519.5701894849   488.4035228183   460.5701894849   433.4035228183   400.7368561516   369.5701894849   342.7368561516   312.5701894849   268.4035228183   220.9035228183   176.0701894849   136.7368561516   100.7368561516    67.2368561516    38.7368561516    16.5701894849    -5.7631438484   -31.7631438484   -58.4298105151   -82.5964771817  -103.9298105151  -126.4298105151  -146.4298105151  -162.9298105151  -176.5964771817  -190.7631438484  -206.4298105151  -221.9298105151  -234.5964771817  -243.4298105151  -251.7631438484  -262.0964771817  -270.0964771817  -273.2631438484  -277.4298105151  -284.5964771817  -293.9298105151  -299.9298105151  -302.5964771817  -304.2631438484  -306.7631438484  -309.5964771817  -311.2631438484  -311.5964771817  -314.0964771817  -318.7631438484  -325.5964771817  -331.7631438484  -337.9298105151  -344.9298105151  -351.4298105151  -357.4298105151  -360.5964771817  -361.5964771817  -363.2631438484  -364.4298105151  -365.4298105151  -366.4298105151  -368.0964771817  -368.4298105151  -370.4298105151  -370.5964771817  -368.5964771817  -365.9298105151  -362.2631438484  -356.9298105151  -350.7631438484  -342.2631438484  -334.4298105151  -330.9298105151  -329.2631438484  -329.0964771817  -328.4298105151  -326.5964771817  -324.4298105151  -323.5964771817  -318.5964771817  -312.0964771817  -307.2631438484  -302.9298105151  -299.4298105151  -297.0964771817  -296.5964771817  -296.4298105151  -296.2631438484  -294.0964771817  -290.5964771817  -285.4298105151  -276.5964771817  -267.5964771817  -257.7631438484  -249.4298105151  -242.4298105151  -236.4298105151  -228.4298105151  -222.0964771817  -218.7631438484  -216.7631438484  -212.5964771817  -209.2631438484  -207.7631438484  -204.9298105151  -202.4298105151  -200.7631438484  -200.5964771817  -200.7631438484  -201.7631438484  -201.2631438484  -202.2631438484  -203.5964771817  -205.9298105151  -205.2631438484  -200.2631438484  -195.9298105151  -192.4298105151  -188.5964771817  -183.2631438484  -179.5964771817  -176.4298105151  -173.2631438484  -172.7631438484  -172.7631438484  -171.2631438484  -169.5964771817  -166.9298105151  -164.2631438484  -162.0964771817  -161.4298105151  -162.4298105151  -161.2631438484  -160.9298105151  -161.0964771817  -161.7631438484  -162.5964771817  -163.0964771817  -165.2631438484  -164.7631438484  -164.5964771817  -164.0964771817  -163.4298105151  -164.0964771817  -166.0964771817  -167.2631438484  -167.2631438484  -167.4298105151  -168.4298105151  -168.5964771817  -166.4298105151  -163.9298105151  -159.2631438484  -155.0964771817  -150.2631438484  -147.9298105151  -144.7631438484  -141.9298105151  -139.9298105151  -136.2631438484  -132.4298105151  -127.0964771817  -122.9298105151  -119.9298105151  -117.7631438484  -115.9298105151  -114.4298105151  -111.7631438484  -111.0964771817  -109.7631438484  -108.2631438484  -106.4298105151  -103.7631438484   -99.9298105151   -97.0964771817   -95.5964771817   -92.5964771817   -90.7631438484   -87.5964771817   -84.9298105151   -80.4298105151   -72.4550306912   -66.1469175340   -61.0054710435   -55.8640245530   -50.5559113958   -44.2477982386   -37.4396850814   -31.4649052575 
  -31.8582866293   -37.0092073659   -41.8267947691   -46.3110488391   -48.2953029090   -47.6128903122   -46.7638110488   -46.5813984521   -44.5813984521   -43.0813984521   -43.0813984521   -42.5813984521   -40.4147317854   -36.0813984521   -30.4147317854   -26.2480651188   -21.5813984521   -17.7480651188   -15.2480651188   -12.9147317854   -13.4147317854   -16.7480651188   -22.0813984521   -25.4147317854   -24.5813984521   -24.4147317854   -27.4147317854   -31.0813984521   -35.2480651188   -39.0813984521   -42.4147317854   -45.9147317854   -48.7480651188   -51.5813984521   -52.5813984521   -52.5813984521   -51.7480651188   -52.9147317854   -50.9147317854   -48.9147317854   -49.9147317854   -50.7480651188   -49.4147317854   -47.5813984521   -44.5813984521   -42.9147317854   -42.2480651188   -39.7480651188   -38.4147317854   -36.0813984521   -35.4147317854   -35.5813984521   -37.4147317854   -39.2480651188   -42.4147317854   -47.2480651188   -51.5813984521   -54.7480651188   -54.5813984521   -52.9147317854   -50.7480651188   -49.5813984521   -48.9147317854   -48.9147317854   -48.4147317854   -47.0813984521   -45.5813984521   -45.2480651188   -42.9147317854   -38.9147317854   -33.4147317854   -27.9147317854   -22.4147317854   -18.0813984521   -14.7480651188   -12.2480651188   -13.0813984521   -13.7480651188   -12.5813984521   -10.9147317854   -10.9147317854   -13.4147317854   -16.7480651188   -16.7480651188   -15.7480651188   -13.4147317854   -14.2480651188   -16.7480651188   -20.5813984521   -22.7480651188   -25.0813984521   -28.4147317854   -29.7480651188   -31.9147317854   -33.4147317854   -34.4147317854   -36.0813984521   -37.0813984521   -39.0813984521   -42.9147317854   -47.9147317854   -53.4147317854   -56.2480651188   -56.4147317854   -54.7480651188   -56.5813984521   -59.9147317854   -64.5813984521   -68.5813984521   -69.7480651188   -70.2480651188   -72.0813984521   -73.7480651188   -73.9147317854   -72.4147317854   -71.4147317854   -71.4147317854   -70.5813984521   -69.9147317854   -70.7480651188   -72.4147317854   -71.4147317854   -69.7480651188   -65.7480651188   -61.4147317854   -57.4147317854   -55.4147317854   -54.7480651188   -50.9147317854   -47.5813984521   -44.7480651188   -43.4147317854   -42.0813984521   -40.9147317854   -40.9147317854   -41.0813984521   -42.9147317854   -47.0813984521   -50.7480651188   -53.0813984521   -55.2480651188   -58.9147317854   -62.2480651188   -64.7480651188   -67.7480651188   -70.5813984521   -71.2480651188   -71.9147317854   -72.2480651188   -74.4147317854   -75.0813984521   -75.0813984521   -73.5813984521   -69.0813984521   -63.7480651188   -59.5813984521   -56.9147317854   -55.7480651188   -54.0813984521   -51.9147317854   -51.7480651188   -53.5813984521   -54.5813984521   -53.2480651188   -51.4147317854   -47.7480651188   -46.5813984521   -45.5813984521   -43.4147317854   -42.4147317854   -43.9147317854   -49.7480651188   -55.2480651188   -61.7480651188   -71.7480651188   -79.4147317854   -86.9147317854   -91.2480651188  -104.4147317854  -112.0813984521  -122.7480651188  -152.2480651188  -217.4147317854  -291.7480651188  -364.4147317854  -475.5813984521  -623.9147317854  -751.5813984521  -839.9147317854  -954.4147317854 -1161.2480651188 -1381.2480651188 -1505.5813984521 -1587.9147317854 -1637.4147317854 -1721.5813984521 -1832.4147317854 -1878.0813984521 -1843.9147317854 -1940.4147317854 -2031.5813984521 -1956.9147317854 -1850.9147317854 -1738.7480651188 -1699.5813984521 -1643.2480651188 -1514.0813984521 -1352.5813984521 -1197.2480651188 -1097.7480651188  -977.0813984521  -883.4147317854  -802.2480651188  -728.4147317854  -675.0813984521  -615.4147317854  -672.5813984521  -795.4147317854  -803.2480651188  -802.5813984521  -770.0813984521  -845.7480651188  -751.4147317854  -663.2480651188  -832.4147317854 -1056.7480651188 -1125.0813984521 -1110.9147317854 -1071.2480651188  -849.9147317854  -646.4147317854  -461.4147317854  -207.0813984521   -14.4147317854    -2.0813984521     0.5852682146   140.7519348812   449.2519348812   549.7519348812   533.9186015479   772.9186015479  1064.9186015479  1036.7519348812   933.9186015479   962.5852682146   763.4186015479   595.5852682146   518.7519348812   546.0852682146   641.0852682146   818.2519348812   984.5852682146   947.9186015479   844.9186015479   859.4186015479   941.9186015479   900.7519348812   870.0852682146   978.0852682146  1144.7519348812  1198.7519348812  1255.2519348812  1266.2519348812  1326.5852682146  1312.7519348812  1222.9186015479  1118.5852682146  1001.0852682146   947.2519348812   911.4186015479   815.9186015479   747.4186015479   704.2519348812   656.5852682146   589.0852682146   531.5852682146   498.7519348812   477.2519348812   459.7519348812   446.5852682146   439.5852682146   445.5852682146   458.4186015479   470.7519348812   486.0852682146   504.5852682146   526.9186015479   559.9186015479   603.5852682146   652.5852682146   698.7519348812   729.2519348812   731.4186015479   722.7519348812   717.7519348812   719.0852682146   723.5852682146   722.9186015479   721.0852682146   722.0852682146   722.2519348812   721.0852682146   722.2519348812   721.9186015479   726.9186015479   735.4186015479   744.0852682146   745.7519348812   746.9186015479   752.9186015479   761.9186015479   773.5852682146   785.9186015479   795.4186015479   804.2519348812   815.0852682146   825.4186015479   832.4186015479   838.7519348812   846.4186015479   847.7519348812   843.9186015479   841.4186015479   839.5852682146   836.9186015479   830.0852682146   818.9186015479   801.2519348812   782.2519348812   762.9186015479   740.9186015479   710.7519348812   678.5852682146   644.0852682146   602.7519348812   556.5852682146   508.7519348812   462.7519348812   410.9186015479   358.2519348812   306.4186015479   257.7519348812   209.5852682146   165.2519348812   120.4186015479    77.5852682146    35.7519348812     0.2519348812   -32.5813984521   -60.2480651188   -84.5813984521  -108.5813984521  -129.0813984521  -147.0813984521  -158.2480651188  -167.2480651188  -175.7480651188  -185.9147317854  -194.0813984521  -200.4147317854  -205.4147317854  -208.5813984521  -210.7480651188  -214.5813984521  -217.4147317854  -223.0813984521  -227.4147317854  -231.4147317854  -233.7480651188  -233.2480651188  -233.7480651188  -234.5813984521  -235.5813984521  -236.7480651188  -237.4147317854  -238.9147317854  -241.0813984521  -243.4147317854  -243.7480651188  -244.7480651188  -244.4147317854  -243.7480651188  -246.5813984521  -247.4147317854  -249.0813984521  -253.7480651188  -260.0813984521  -266.0813984521  -270.0813984521  -271.9147317854  -273.0813984521  -275.2480651188  -275.5813984521  -276.4147317854  -277.5813984521  -277.5813984521  -279.5813984521  -280.4147317854  -277.9147317854  -276.4147317854  -274.2480651188  -273.5813984521  -271.0813984521  -269.2480651188  -267.4147317854  -265.4147317854  -264.5813984521  -262.4147317854  -260.9147317854  -259.0813984521  -256.7480651188  -253.2480651188  -250.0813984521  -244.9147317854  -238.5813984521  -234.2480651188  -230.7480651188  -222.5813984521  -215.0813984521  -208.4147317854  -202.0813984521  -197.2480651188  -192.4147317854  -186.5813984521  -180.5813984521  -172.7480651188  -165.5813984521  -159.2480651188  -152.2480651188  -147.0813984521  -144.2480651188  -141.4147317854  -138.9147317854  -137.7480651188  -137.2480651188  -134.9147317854  -133.9147317854  -133.4147317854  -130.2480651188  -128.0813984521  -125.2480651188  -125.0813984521  -126.4147317854  -129.2480651188  -130.4147317854  -130.9147317854  -130.5813984521  -130.2480651188  -130.4147317854  -131.9147317854  -133.9147317854  -137.7480651188  -139.7480651188  -140.2480651188  -140.5813984521  -139.4147317854  -138.5813984521  -136.5813984521  -134.9147317854  -131.7480651188  -128.4147317854  -127.0813984521  -127.5813984521  -126.5813984521  -122.7480651188  -119.5813984521  -116.2480651188  -111.5813984521  -108.0813984521  -104.4147317854  -101.9147317854  -101.4147317854  -101.7480651188   -96.5971443822   -90.1128903122   -83.6286362423   -78.4777155057   -72.1601281025   -64.3425406992   -57.1916199626   -52.2073658927 
    4.8757672805     5.9915932746     5.7740859354     5.7232452629     6.3390712570     7.9548972511    10.9040565786    12.1865492394    10.6865492394     8.6865492394     9.5198825727    10.1865492394     9.1865492394     8.0198825727     7.1865492394     5.5198825727     4.1865492394     1.3532159061    -0.8134507606    -2.9801174273    -5.4801174273    -6.6467840939    -9.6467840939   -13.4801174273   -13.8134507606   -13.9801174273   -14.9801174273   -15.6467840939   -17.4801174273   -20.3134507606   -23.1467840939   -24.6467840939   -25.1467840939   -24.1467840939   -22.6467840939   -20.6467840939   -17.8134507606   -16.4801174273   -15.3134507606   -13.1467840939   -11.6467840939   -10.3134507606    -9.4801174273    -9.9801174273    -7.3134507606    -2.4801174273     3.0198825727     6.3532159061     8.3532159061     9.3532159061    10.1865492394    10.8532159061    11.1865492394     9.0198825727     4.5198825727     1.5198825727     0.1865492394     0.6865492394     0.3532159061     0.1865492394    -1.4801174273    -5.3134507606    -9.6467840939   -12.9801174273   -14.4801174273   -15.6467840939   -15.6467840939   -16.9801174273   -18.8134507606   -18.9801174273   -15.9801174273   -15.1467840939   -16.9801174273   -20.9801174273   -25.9801174273   -30.1467840939   -32.3134507606   -34.6467840939   -37.1467840939   -37.9801174273   -40.4801174273   -42.6467840939   -44.9801174273   -46.3134507606   -48.8134507606   -52.1467840939   -55.3134507606   -56.9801174273   -59.9801174273   -62.6467840939   -61.3134507606   -60.9801174273   -60.8134507606   -59.6467840939   -59.1467840939   -58.1467840939   -56.1467840939   -55.1467840939   -55.8134507606   -58.4801174273   -61.6467840939   -60.1467840939   -58.6467840939   -56.8134507606   -56.9801174273   -58.4801174273   -62.3134507606   -62.3134507606   -61.8134507606   -61.8134507606   -62.1467840939   -65.3134507606   -67.9801174273   -71.4801174273   -71.1467840939   -66.1467840939   -56.9801174273   -50.3134507606   -42.9801174273   -37.4801174273   -30.4801174273   -23.9801174273   -16.8134507606   -12.6467840939   -11.8134507606   -10.6467840939    -8.6467840939    -8.4801174273   -17.1467840939   -31.8134507606   -64.3134507606  -110.6467840939  -177.1467840939  -258.9801174273  -334.4801174273  -435.1467840939  -535.4801174273  -599.1467840939  -664.8134507606  -763.9801174273  -913.8134507606 -1039.6467840939 -1113.9801174273 -1201.9801174273 -1256.1467840939 -1328.1467840939 -1416.3134507606 -1529.1467840939 -1727.1467840939 -1823.3134507606 -1766.1467840939 -1653.8134507606 -1593.8134507606 -1617.3134507606 -1707.6467840939 -1687.3134507606 -1612.3134507606 -1609.8134507606 -1601.8134507606 -1564.6467840939 -1559.1467840939 -1595.1467840939 -1694.3134507606 -1643.8134507606 -1301.9801174273 -1047.8134507606 -1143.8134507606 -1368.1467840939 -1426.8134507606 -1449.1467840939 -1403.8134507606 -1253.6467840939  -979.3134507606  -750.1467840939  -684.1467840939  -761.4801174273  -950.4801174273  -798.9801174273  -450.1467840939  -230.9801174273  -327.6467840939  -512.8134507606  -466.4801174273  -292.1467840939   -66.1467840939   185.8532159061   441.1865492394   476.8532159061   357.8532159061   429.5198825727   524.8532159061   646.8532159061   988.3532159061  1087.3532159061  1064.0198825727  1066.1865492394  1192.3532159061  1469.8532159061  1784.1865492394  2058.8532159061  2096.8532159061  2058.3532159061  1999.1865492394  1969.8532159061  1961.6865492394  1845.6865492394  1810.8532159061  1870.0198825727  1823.3532159061  1740.0198825727  1667.6865492394  1582.5198825727  1503.6865492394  1363.1865492394  1144.1865492394   930.8532159061   787.0198825727   719.1865492394   670.0198825727   628.1865492394   592.6865492394   565.6865492394   544.6865492394   538.8532159061   538.0198825727   542.3532159061   555.1865492394   567.6865492394   574.5198825727   581.3532159061   590.0198825727   604.3532159061   623.1865492394   628.6865492394   632.5198825727   638.0198825727   646.3532159061   659.0198825727   666.1865492394   669.5198825727   671.5198825727   673.5198825727   674.0198825727   674.6865492394   677.1865492394   679.0198825727   680.8532159061   681.8532159061   681.6865492394   682.3532159061   684.1865492394   685.8532159061   685.6865492394   682.0198825727   677.5198825727   672.5198825727   667.3532159061   661.0198825727   656.0198825727   654.3532159061   653.6865492394   651.6865492394   648.5198825727   643.0198825727   637.6865492394   629.6865492394   618.3532159061   606.8532159061   595.3532159061   583.5198825727   570.3532159061   556.1865492394   541.8532159061   527.3532159061   509.6865492394   491.0198825727   468.8532159061   442.8532159061   410.8532159061   380.0198825727   349.1865492394   321.5198825727   298.0198825727   269.6865492394   240.5198825727   209.3532159061   179.1865492394   147.8532159061   116.0198825727    84.1865492394    55.3532159061    27.5198825727     0.5198825727   -24.3134507606   -46.9801174273   -68.9801174273   -90.4801174273  -112.8134507606  -138.1467840939  -156.1467840939  -175.3134507606  -190.8134507606  -203.8134507606  -215.3134507606  -227.4801174273  -238.8134507606  -249.8134507606  -260.4801174273  -270.3134507606  -278.8134507606  -284.4801174273  -288.3134507606  -292.8134507606  -298.6467840939  -301.6467840939  -304.8134507606  -303.9801174273  -302.3134507606  -301.4801174273  -301.1467840939  -299.9801174273  -297.9801174273  -296.1467840939  -295.3134507606  -293.4801174273  -289.6467840939  -286.1467840939  -281.6467840939  -277.9801174273  -272.9801174273  -270.4801174273  -271.6467840939  -273.6467840939  -276.4801174273  -279.6467840939  -283.3134507606  -286.1467840939  -289.9801174273  -292.8134507606  -292.6467840939  -290.8134507606  -288.3134507606  -286.1467840939  -284.4801174273  -282.6467840939  -279.4801174273  -274.8134507606  -268.8134507606  -264.1467840939  -260.8134507606  -256.6467840939  -249.6467840939  -241.4801174273  -232.9801174273  -224.9801174273  -217.6467840939  -211.4801174273  -206.9801174273  -203.4801174273  -198.6467840939  -191.8134507606  -187.8134507606  -185.4801174273  -183.8134507606  -180.9801174273  -175.1467840939  -171.3134507606  -169.1467840939  -167.1467840939  -164.6467840939  -161.3134507606  -159.1467840939  -157.4801174273  -157.3134507606  -156.1467840939  -156.1467840939  -155.9801174273  -154.4801174273  -151.6467840939  -150.8134507606  -150.6467840939  -151.3134507606  -149.1467840939  -148.4801174273  -150.9801174273  -153.8134507606  -155.4801174273  -156.9801174273  -159.8134507606  -162.6467840939  -164.3134507606  -165.3134507606  -167.3134507606  -169.9801174273  -172.8134507606  -173.1467840939  -173.3134507606  -173.3134507606  -174.6467840939  -174.8134507606  -172.1467840939  -166.1467840939  -161.6467840939  -157.6467840939  -152.9801174273  -147.3134507606  -141.9801174273  -139.4801174273  -135.4801174273  -130.1467840939  -122.8134507606  -113.1467840939  -105.3134507606   -99.4801174273   -95.3134507606   -90.8134507606   -88.4801174273   -89.4801174273   -90.9801174273   -90.8134507606   -90.3134507606   -91.8134507606   -93.9801174273   -95.9801174273  -100.8134507606  -104.9801174273  -109.3134507606  -115.8134507606  -121.1467840939  -123.9801174273  -124.4801174273  -125.4801174273  -124.6467840939  -125.6467840939  -129.1467840939  -134.1467840939  -136.9801174273  -136.9801174273  -136.3134507606  -134.1467840939  -129.4801174273  -124.4801174273  -121.8134507606  -119.3134507606  -118.3134507606  -120.6467840939  -120.4801174273  -117.8134507606  -117.1467840939  -115.6467840939  -111.1467840939  -107.9801174273  -105.3134507606  -103.1467840939  -101.1467840939   -99.9801174273   -99.4801174273   -99.6467840939   -99.9801174273  -100.4801174273   -97.6467840939   -90.9801174273   -87.4801174273   -85.6467840939   -83.6467840939   -80.8134507606   -78.4801174273   -74.4801174273   -71.6467840939   -71.6467840939   -71.3134507606   -70.9801174273   -70.9801174273   -65.7626100881   -59.8784360822   -54.3275954097   -50.1100880705   -47.2259140646   -44.0084067254   -41.1242327195   -37.2400587136 
   15.9117882919    17.6797647688    18.7810745790    19.0490510559    19.6503608661    19.9183373430    20.0196471532    21.2876236300    23.7876236300    23.2876236300    19.7876236300    16.2876236300    14.1209569634    12.1209569634     8.6209569634     5.6209569634     3.4542902967     1.1209569634    -1.7123763700    -4.7123763700    -7.0457097033    -7.0457097033    -6.5457097033    -8.0457097033   -11.3790430366   -13.2123763700   -10.5457097033    -7.2123763700    -4.3790430366    -2.8790430366    -2.8790430366    -3.3790430366    -4.0457097033    -4.3790430366    -5.0457097033    -5.7123763700    -8.3790430366   -10.8790430366   -13.2123763700   -15.8790430366   -19.2123763700   -23.5457097033   -30.3790430366   -36.3790430366   -40.0457097033   -45.2123763700   -48.3790430366   -49.8790430366   -50.8790430366   -52.8790430366   -54.8790430366   -55.7123763700   -54.5457097033   -54.5457097033   -54.7123763700   -54.8790430366   -53.3790430366   -49.5457097033   -44.2123763700   -42.0457097033   -43.0457097033   -41.0457097033   -38.7123763700   -36.3790430366   -34.8790430366   -33.2123763700   -30.3790430366   -27.0457097033   -24.2123763700   -22.2123763700   -22.3790430366   -21.3790430366   -20.7123763700   -20.2123763700   -20.0457097033   -20.2123763700   -20.7123763700   -23.7123763700   -27.7123763700   -32.2123763700   -36.8790430366   -39.5457097033   -41.3790430366   -42.7123763700   -44.5457097033   -47.0457097033   -48.3790430366   -50.0457097033   -49.3790430366   -50.3790430366   -51.3790430366   -51.2123763700   -49.5457097033   -46.3790430366   -42.2123763700   -39.8790430366   -38.0457097033   -36.8790430366   -37.3790430366   -39.7123763700   -41.5457097033   -41.0457097033   -40.5457097033   -38.7123763700   -39.7123763700   -40.8790430366   -43.8790430366   -45.7123763700   -46.3790430366   -47.8790430366   -51.2123763700   -52.3790430366   -52.5457097033   -52.2123763700   -50.7123763700   -47.8790430366   -43.8790430366   -41.7123763700   -38.8790430366   -39.3790430366   -38.7123763700   -38.3790430366   -36.8790430366   -36.7123763700   -37.2123763700   -38.2123763700   -36.0457097033   -33.0457097033   -30.2123763700   -27.2123763700   -26.0457097033   -25.5457097033   -25.3790430366   -23.7123763700   -22.3790430366   -20.3790430366   -20.7123763700   -19.8790430366   -17.0457097033   -15.3790430366   -12.0457097033    -7.0457097033    -2.5457097033     0.6209569634     0.1209569634    -3.2123763700    -2.8790430366     0.4542902967     1.9542902967     2.7876236300     4.4542902967     6.6209569634     8.2876236300    10.7876236300    11.1209569634    12.2876236300    10.9542902967     9.4542902967     6.1209569634     1.4542902967     0.1209569634    -0.5457097033    -3.3790430366    -7.8790430366   -11.3790430366   -17.2123763700   -22.5457097033   -28.0457097033   -29.8790430366   -31.7123763700   -34.2123763700   -36.8790430366   -40.3790430366   -44.2123763700   -52.3790430366   -62.8790430366   -73.2123763700   -83.2123763700  -116.5457097033  -143.2123763700  -161.8790430366  -185.3790430366  -227.7123763700  -293.3790430366  -387.3790430366  -527.2123763700  -624.3790430366  -701.0457097033  -803.7123763700  -952.2123763700 -1113.0457097033 -1306.7123763700 -1461.2123763700 -1641.2123763700 -1891.3790430366 -2145.3790430366 -2294.3790430366 -2377.5457097033 -2418.5457097033 -2423.2123763700 -2449.8790430366 -2392.0457097033 -2279.0457097033 -2151.5457097033 -2042.3790430366 -1882.0457097033 -1791.0457097033 -1774.0457097033 -1834.5457097033 -1644.0457097033 -1177.3790430366  -766.7123763700  -647.8790430366  -662.0457097033  -637.3790430366  -626.3790430366  -504.5457097033  -450.3790430366  -565.3790430366  -641.3790430366  -669.8790430366  -778.8790430366  -841.5457097033  -689.5457097033  -590.8790430366  -524.7123763700  -447.2123763700  -288.8790430366   -22.5457097033   115.6209569634   114.9542902967   199.9542902967   304.9542902967   433.1209569634   690.1209569634   892.1209569634   958.9542902967   978.6209569634  1133.9542902967  1235.7876236300  1531.2876236300  1703.9542902967  1575.6209569634  1353.2876236300  1136.1209569634  1164.4542902967  1300.1209569634  1344.2876236300  1370.1209569634  1395.4542902967  1332.2876236300  1239.9542902967  1285.7876236300  1436.1209569634  1479.4542902967  1460.7876236300  1356.4542902967  1187.4542902967  1120.1209569634  1112.2876236300  1168.7876236300  1174.6209569634  1147.2876236300  1131.1209569634  1048.2876236300   966.2876236300   915.9542902967   873.6209569634   826.6209569634   793.4542902967   764.7876236300   747.2876236300   717.4542902967   683.7876236300   652.1209569634   624.2876236300   597.4542902967   580.7876236300   557.7876236300   531.1209569634   509.9542902967   501.4542902967   500.9542902967   507.6209569634   517.1209569634   530.6209569634   552.1209569634   570.1209569634   585.7876236300   601.9542902967   620.7876236300   639.1209569634   657.7876236300   673.9542902967   696.4542902967   717.4542902967   738.2876236300   752.2876236300   756.7876236300   757.2876236300   753.4542902967   749.2876236300   744.4542902967   745.6209569634   744.4542902967   739.6209569634   733.9542902967   731.1209569634   725.7876236300   719.7876236300   716.2876236300   712.6209569634   706.2876236300   698.4542902967   691.9542902967   682.6209569634   672.6209569634   661.2876236300   646.7876236300   625.4542902967   597.1209569634   571.6209569634   549.9542902967   530.7876236300   514.7876236300   495.2876236300   472.4542902967   448.7876236300   421.4542902967   391.4542902967   357.7876236300   322.6209569634   286.6209569634   250.7876236300   217.4542902967   186.7876236300   160.6209569634   132.1209569634   101.7876236300    68.4542902967    32.1209569634    -4.5457097033   -42.5457097033   -77.7123763700  -108.3790430366  -134.7123763700  -157.8790430366  -177.3790430366  -194.7123763700  -211.3790430366  -227.7123763700  -242.0457097033  -253.3790430366  -263.3790430366  -275.0457097033  -287.3790430366  -299.3790430366  -306.2123763700  -305.5457097033  -305.3790430366  -307.5457097033  -312.0457097033  -314.8790430366  -315.8790430366  -315.7123763700  -315.0457097033  -314.2123763700  -314.3790430366  -315.3790430366  -316.3790430366  -318.0457097033  -319.2123763700  -316.5457097033  -313.5457097033  -313.5457097033  -313.7123763700  -313.7123763700  -310.5457097033  -305.8790430366  -302.3790430366  -302.2123763700  -303.3790430366  -304.0457097033  -305.3790430366  -308.7123763700  -311.5457097033  -310.8790430366  -309.2123763700  -310.8790430366  -310.0457097033  -310.3790430366  -310.0457097033  -308.3790430366  -309.7123763700  -313.7123763700  -316.7123763700  -315.5457097033  -311.5457097033  -310.8790430366  -309.2123763700  -302.7123763700  -295.5457097033  -285.0457097033  -273.2123763700  -262.7123763700  -257.7123763700  -253.3790430366  -248.8790430366  -243.5457097033  -239.0457097033  -233.7123763700  -226.8790430366  -221.5457097033  -217.2123763700  -212.0457097033  -207.0457097033  -204.3790430366  -200.7123763700  -199.0457097033  -198.0457097033  -196.0457097033  -192.8790430366  -189.0457097033  -184.2123763700  -179.7123763700  -173.5457097033  -168.7123763700  -167.8790430366  -164.5457097033  -159.0457097033  -152.3790430366  -146.7123763700  -141.2123763700  -137.7123763700  -136.0457097033  -138.3790430366  -138.2123763700  -135.7123763700  -134.0457097033  -133.3790430366  -133.0457097033  -133.5457097033  -132.5457097033  -129.0457097033  -127.7123763700  -129.8790430366  -130.3790430366  -127.2123763700  -123.0457097033  -119.8790430366  -119.5457097033  -117.8790430366  -116.5457097033  -116.5457097033  -114.0457097033  -112.3790430366  -113.5457097033  -116.2123763700  -117.5457097033  -119.8790430366  -123.3790430366  -125.8790430366  -127.3790430366  -130.3790430366  -131.7123763700  -132.8790430366  -134.8790430366  -134.3790430366  -134.3790430366  -136.2123763700  -140.0457097033  -143.5457097033  -143.7123763700  -132.6470195135  -123.0816626570  -113.3496391339  -102.6176156108   -91.8855920877   -83.4869018979   -75.5882117081   -69.8561881850 
  -15.7302158273   -17.9409805489   -18.6517452704   -18.8625099920   -19.4066080469   -20.6173727684   -20.3281374900   -18.7055688782   -16.7055688782   -16.0389022116   -12.5389022116   -10.0389022116   -12.8722355449   -16.5389022116   -19.2055688782   -19.2055688782   -18.2055688782   -17.7055688782   -19.0389022116   -20.5389022116   -22.0389022116   -22.0389022116   -22.7055688782   -23.2055688782   -25.0389022116   -24.3722355449   -22.0389022116   -20.2055688782   -19.2055688782   -18.2055688782   -17.0389022116   -16.0389022116   -15.3722355449   -17.5389022116   -19.7055688782   -23.5389022116   -27.0389022116   -31.2055688782   -35.3722355449   -41.2055688782   -46.0389022116   -51.2055688782   -57.2055688782   -61.7055688782   -64.0389022116   -65.3722355449   -63.0389022116   -59.8722355449   -57.3722355449   -52.3722355449   -48.0389022116   -44.0389022116   -40.7055688782   -36.8722355449   -33.2055688782   -28.7055688782   -22.0389022116   -15.3722355449    -9.2055688782    -2.8722355449     2.7944311218     7.9610977884     9.2944311218     7.9610977884     6.1277644551     5.4610977884     6.9610977884    10.2944311218    14.9610977884    18.7944311218    20.4610977884    22.6277644551    25.2944311218    26.7944311218    27.6277644551    25.9610977884    26.7944311218    27.9610977884    28.1277644551    29.6277644551    33.2944311218    37.7944311218    40.9610977884    43.4610977884    45.4610977884    46.2944311218    47.4610977884    48.4610977884    47.4610977884    46.2944311218    46.2944311218    47.6277644551    47.6277644551    47.7944311218    49.4610977884    50.4610977884    51.1277644551    49.9610977884    48.9610977884    44.9610977884    39.7944311218    37.1277644551    34.1277644551    29.4610977884    24.1277644551    20.1277644551    16.2944311218    13.2944311218    10.9610977884     6.6277644551     2.7944311218     0.7944311218    -3.2055688782    -5.5389022116    -8.3722355449    -7.3722355449    -4.5389022116    -3.7055688782    -2.3722355449    -0.8722355449     1.7944311218     2.9610977884     5.2944311218     6.4610977884     6.2944311218     8.2944311218    10.2944311218    11.4610977884    12.2944311218     9.4610977884     7.6277644551     7.6277644551     5.7944311218     4.4610977884     4.4610977884     3.4610977884     2.7944311218     4.6277644551     4.7944311218     2.6277644551     0.2944311218    -0.3722355449    -0.8722355449    -4.7055688782    -5.8722355449    -5.5389022116    -4.0389022116    -3.8722355449    -6.3722355449   -12.0389022116   -17.5389022116   -16.8722355449   -15.7055688782   -14.3722355449   -13.8722355449   -11.7055688782    -5.5389022116     0.7944311218     4.6277644551     7.2944311218     7.4610977884     5.7944311218    -0.8722355449   -18.2055688782   -60.2055688782   -88.7055688782  -104.3722355449  -132.7055688782  -167.3722355449  -211.0389022116  -275.2055688782  -330.8722355449  -392.5389022116  -464.2055688782  -550.2055688782  -654.7055688782  -754.2055688782  -891.5389022116  -981.7055688782 -1016.7055688782  -987.0389022116  -973.3722355449 -1009.0389022116 -1023.7055688782 -1021.0389022116 -1074.5389022116 -1199.8722355449 -1338.8722355449 -1493.3722355449 -1662.7055688782 -1822.0389022116 -1916.0389022116 -1979.8722355449 -1997.7055688782 -2067.0389022116 -2051.5389022116 -2164.2055688782 -2346.5389022116 -2392.0389022116 -2273.2055688782 -2118.8722355449 -1954.7055688782 -1771.7055688782 -1473.3722355449 -1214.8722355449 -1025.5389022116  -775.8722355449  -579.5389022116  -459.8722355449  -410.3722355449  -453.5389022116  -532.2055688782  -530.0389022116  -456.5389022116  -399.7055688782  -493.8722355449  -641.2055688782  -614.5389022116  -516.2055688782  -482.3722355449  -378.2055688782  -321.3722355449  -235.5389022116   -65.7055688782   104.4610977884   248.7944311218   468.4610977884   569.7944311218   773.7944311218  1023.9610977884  1142.2944311218  1258.7944311218  1369.9610977884  1370.1277644551  1377.9610977884  1233.1277644551  1114.9610977884  1201.2944311218  1208.7944311218  1109.9610977884  1013.2944311218   981.6277644551   977.1277644551  1047.1277644551  1060.7944311218  1031.7944311218  1043.1277644551  1018.4610977884   989.4610977884   936.6277644551   871.4610977884   916.6277644551   922.4610977884   854.7944311218   787.2944311218   758.1277644551   768.9610977884   801.2944311218   807.7944311218   779.4610977884   729.6277644551   684.6277644551   654.1277644551   639.6277644551   638.2944311218   647.6277644551   664.2944311218   678.2944311218   691.7944311218   711.4610977884   725.4610977884   730.1277644551   728.4610977884   727.4610977884   757.9610977884   779.7944311218   788.4610977884   792.2944311218   789.9610977884   781.9610977884   771.4610977884   765.4610977884   758.1277644551   752.2944311218   747.4610977884   744.6277644551   744.1277644551   747.4610977884   755.9610977884   768.2944311218   774.1277644551   773.1277644551   774.1277644551   773.7944311218   771.1277644551   771.2944311218   773.6277644551   773.6277644551   774.1277644551   770.4610977884   765.6277644551   761.1277644551   754.6277644551   746.7944311218   739.6277644551   732.6277644551   724.9610977884   713.9610977884   697.4610977884   681.1277644551   664.1277644551   642.6277644551   625.2944311218   610.1277644551   597.1277644551   583.2944311218   569.2944311218   556.4610977884   539.7944311218   518.1277644551   495.2944311218   473.1277644551   449.6277644551   426.6277644551   401.6277644551   377.2944311218   353.6277644551   332.6277644551   307.2944311218   279.7944311218   247.9610977884   219.9610977884   194.2944311218   165.1277644551   137.6277644551   114.2944311218    92.1277644551    69.4610977884    45.6277644551    19.4610977884    -4.0389022116   -25.8722355449   -45.5389022116   -66.2055688782   -83.8722355449   -99.2055688782  -112.5389022116  -126.2055688782  -142.0389022116  -156.7055688782  -169.0389022116  -177.3722355449  -184.3722355449  -193.2055688782  -202.3722355449  -205.7055688782  -208.0389022116  -210.2055688782  -212.2055688782  -213.3722355449  -216.2055688782  -218.7055688782  -218.5389022116  -217.0389022116  -215.8722355449  -214.7055688782  -213.0389022116  -213.5389022116  -216.5389022116  -220.2055688782  -219.7055688782  -219.7055688782  -219.0389022116  -219.8722355449  -224.5389022116  -226.7055688782  -226.2055688782  -226.8722355449  -228.2055688782  -232.2055688782  -237.5389022116  -238.5389022116  -237.7055688782  -237.0389022116  -234.5389022116  -231.0389022116  -227.3722355449  -221.3722355449  -215.2055688782  -210.8722355449  -204.3722355449  -199.8722355449  -197.2055688782  -195.3722355449  -194.5389022116  -192.0389022116  -186.2055688782  -183.3722355449  -183.8722355449  -185.2055688782  -186.5389022116  -185.8722355449  -186.3722355449  -191.3722355449  -196.2055688782  -196.0389022116  -191.3722355449  -184.7055688782  -179.2055688782  -175.3722355449  -171.0389022116  -166.0389022116  -162.8722355449  -160.8722355449  -157.5389022116  -152.3722355449  -146.3722355449  -141.3722355449  -138.2055688782  -135.2055688782  -134.2055688782  -135.5389022116  -140.5389022116  -147.7055688782  -153.5389022116  -156.0389022116  -158.8722355449  -159.7055688782  -159.0389022116  -160.2055688782  -161.2055688782  -161.5389022116  -161.5389022116  -163.8722355449  -165.3722355449  -167.0389022116  -164.7055688782  -159.2055688782  -154.3722355449  -150.0389022116  -145.8722355449  -141.5389022116  -137.8722355449  -137.0389022116  -137.2055688782  -134.5389022116  -132.0389022116  -130.0389022116  -130.0389022116  -128.5389022116  -126.0389022116  -120.7055688782  -116.2055688782  -116.5389022116  -117.3722355449  -116.8722355449  -115.5389022116  -114.8722355449  -114.5389022116  -114.2055688782  -112.7055688782  -110.3722355449  -106.2055688782  -104.0389022116  -102.3722355449  -102.3722355449  -104.0389022116  -106.3722355449  -112.7055688782  -117.3722355449  -119.5389022116  -122.0389022116  -126.7055688782  -120.6614708233  -113.9507061018  -107.0732747136  -100.5291766587   -94.8184119371   -90.2743138822   -84.8968824940   -78.5194511058 
