   -6.8954824913   -10.3468323978   -13.9648489709   -16.5828655440   -18.7008821171   -21.6522320235   -23.7702485966   -25.3882651697   -24.7215985031   -25.3882651697   -28.8882651697   -29.7215985031   -29.2215985031   -29.0549318364   -27.7215985031   -26.2215985031   -25.0549318364   -22.2215985031   -19.0549318364   -17.3882651697   -16.3882651697   -15.7215985031   -16.2215985031   -15.2215985031   -15.0549318364   -13.5549318364   -12.0549318364   -13.8882651697   -14.7215985031   -12.5549318364   -12.2215985031   -14.3882651697   -16.8882651697   -17.5549318364   -17.7215985031   -18.0549318364   -20.3882651697   -21.5549318364   -20.5549318364   -19.7215985031   -18.7215985031   -18.2215985031   -14.8882651697   -10.0549318364    -6.8882651697    -6.0549318364    -5.7215985031    -3.8882651697    -1.7215985031    -0.2215985031     0.1117348303     0.1117348303     1.4450681636     3.6117348303     2.7784014969     0.2784014969    -3.8882651697    -7.7215985031   -12.0549318364   -15.5549318364   -18.0549318364   -20.8882651697   -20.7215985031   -19.7215985031   -19.8882651697   -21.0549318364   -21.5549318364   -21.0549318364   -20.2215985031   -19.0549318364   -17.8882651697   -16.5549318364   -14.2215985031   -10.8882651697    -8.8882651697    -9.0549318364    -9.0549318364    -8.2215985031    -9.0549318364    -8.8882651697    -8.0549318364    -8.3882651697    -9.2215985031    -8.2215985031    -5.2215985031    -3.3882651697    -2.3882651697    -2.5549318364    -1.5549318364    -0.2215985031     1.6117348303     4.4450681636     5.1117348303     5.9450681636     9.6117348303    10.9450681636    12.6117348303    14.1117348303    16.4450681636    16.1117348303    13.4450681636    10.4450681636     9.6117348303    11.4450681636    11.4450681636    10.1117348303     6.2784014969     2.2784014969     0.2784014969    -2.3882651697    -7.2215985031   -13.3882651697   -20.7215985031   -24.2215985031   -26.2215985031   -28.3882651697   -29.5549318364   -31.3882651697   -33.2215985031   -38.0549318364   -43.8882651697   -48.0549318364   -50.0549318364   -50.5549318364   -51.5549318364   -51.5549318364   -50.5549318364   -47.0549318364   -38.7215985031   -32.2215985031   -30.7215985031   -30.5549318364   -30.0549318364   -27.2215985031   -22.7215985031   -16.3882651697    -9.8882651697    -7.0549318364    -5.5549318364    -5.3882651697    -4.2215985031    -4.5549318364    -4.8882651697    -3.5549318364    -6.2215985031    -9.7215985031   -10.8882651697    -9.5549318364    -8.7215985031    -8.5549318364   -12.2215985031   -18.5549318364   -26.2215985031   -27.7215985031   -26.8882651697   -27.8882651697   -30.0549318364   -31.2215985031   -31.7215985031   -34.7215985031   -34.8882651697   -33.0549318364   -30.3882651697   -31.0549318364   -32.2215985031   -35.3882651697   -38.2215985031   -40.5549318364   -40.3882651697   -43.5549318364   -46.0549318364   -45.8882651697   -45.7215985031   -49.2215985031   -66.2215985031   -88.5549318364   -97.3882651697  -101.0549318364  -110.2215985031  -120.2215985031  -129.0549318364  -154.8882651697  -203.8882651697  -271.0549318364  -359.7215985031  -471.3882651697  -593.5549318364  -691.8882651697  -829.7215985031 -1041.8882651697 -1306.8882651697 -1517.2215985031 -1733.2215985031 -1885.5549318364 -2114.3882651697 -2416.3882651697 -2501.2215985031 -2325.5549318364 -2180.2215985031 -1976.3882651697 -1705.3882651697 -1617.7215985031 -1562.7215985031 -1536.8882651697 -1472.0549318364 -1209.3882651697 -1059.2215985031  -916.0549318364  -566.3882651697  -244.2215985031   -19.7215985031   283.9450681636   332.7784014969   160.4450681636   -26.2215985031  -198.5549318364  -308.5549318364  -231.0549318364    53.1117348303   493.7784014969   749.9450681636   785.9450681636  1029.9450681636  1097.9450681636   789.2784014969   447.2784014969   447.7784014969   449.2784014969   508.2784014969   664.4450681636   867.2784014969   938.4450681636   823.7784014969   792.6117348303   613.2784014969   328.4450681636   125.2784014969    36.6117348303   -77.2215985031     4.2784014969   226.7784014969   300.2784014969   284.9450681636   354.9450681636   495.2784014969   543.9450681636   600.2784014969   682.6117348303   811.2784014969   850.4450681636   866.7784014969   823.9450681636   886.1117348303   887.6117348303   807.4450681636   696.1117348303   658.6117348303   789.7784014969   880.2784014969   905.7784014969   878.6117348303   851.7784014969   820.6117348303   827.1117348303   831.1117348303   845.4450681636   861.2784014969   894.6117348303   932.2784014969  1018.6117348303  1180.4450681636  1306.9450681636  1367.7784014969  1408.9450681636  1415.2784014969  1392.2784014969  1330.9450681636  1225.9450681636  1135.9450681636  1061.2784014969  1007.6117348303   964.7784014969   942.6117348303   921.9450681636   895.2784014969   860.6117348303   819.4450681636   779.1117348303   745.7784014969   701.6117348303   658.2784014969   614.4450681636   571.4450681636   542.6117348303   518.9450681636   490.6117348303   472.9450681636   456.2784014969   418.7784014969   373.6117348303   330.1117348303   290.6117348303   255.6117348303   222.1117348303   190.9450681636   160.6117348303   129.2784014969   100.7784014969    72.9450681636    47.1117348303    20.1117348303    -5.0549318364   -27.5549318364   -47.3882651697   -62.3882651697   -77.3882651697   -94.0549318364  -109.5549318364  -123.5549318364  -134.2215985031  -143.2215985031  -152.3882651697  -159.7215985031  -161.2215985031  -163.7215985031  -166.8882651697  -169.8882651697  -170.0549318364  -171.8882651697  -173.3882651697  -175.2215985031  -176.7215985031  -175.7215985031  -173.2215985031  -170.3882651697  -167.8882651697  -163.0549318364  -159.0549318364  -153.7215985031  -151.3882651697  -151.3882651697  -153.0549318364  -154.5549318364  -155.7215985031  -153.8882651697  -151.2215985031  -148.7215985031  -144.7215985031  -142.5549318364  -140.3882651697  -137.0549318364  -133.7215985031  -131.8882651697  -128.0549318364  -125.3882651697  -121.3882651697  -115.8882651697  -108.2215985031   -98.0549318364   -88.7215985031   -86.3882651697   -84.2215985031   -83.2215985031   -84.0549318364   -85.5549318364   -87.8882651697   -89.5549318364   -92.0549318364   -95.7215985031   -96.5549318364   -99.2215985031  -101.5549318364  -103.7215985031  -106.3882651697  -112.5549318364  -119.3882651697  -121.5549318364  -126.2215985031  -127.2215985031  -125.8882651697  -124.2215985031  -123.3882651697  -122.7215985031  -120.7215985031  -116.8882651697  -117.7215985031  -118.3882651697  -117.8882651697  -116.8882651697  -113.2215985031  -113.3882651697  -114.3882651697  -116.7215985031  -116.5549318364  -117.5549318364  -119.3882651697  -121.8882651697  -124.0549318364  -126.5549318364  -127.5549318364  -130.5549318364  -134.7215985031  -137.8882651697  -142.0549318364  -143.3882651697  -142.5549318364  -139.3882651697  -135.5549318364  -129.5549318364  -124.8882651697  -121.5549318364  -118.0549318364  -115.5549318364  -112.7215985031  -111.3882651697  -111.0549318364  -110.7215985031  -108.8882651697  -106.2215985031  -105.5549318364  -106.5549318364  -110.5549318364  -112.7215985031  -115.0549318364  -117.7215985031  -121.7215985031  -123.3882651697  -122.8882651697  -120.5549318364  -119.7215985031  -118.7215985031  -120.2215985031  -120.8882651697  -119.8882651697  -120.5549318364  -120.0549318364  -119.0549318364  -120.5549318364  -119.0549318364  -116.2215985031  -115.3882651697  -116.8882651697  -121.0549318364  -125.3882651697  -127.7215985031  -127.8882651697  -127.3882651697  -124.7215985031  -121.5549318364  -120.8882651697  -120.5549318364  -121.2215985031  -122.8882651697  -122.3882651697  -121.8882651697  -121.3882651697  -120.7215985031  -118.0549318364  -115.8882651697  -115.3882651697  -117.2215985031  -119.2215985031  -122.5549318364  -124.7215985031  -126.0549318364  -125.7215985031  -124.5549318364  -122.3882651697  -119.7215985031  -117.2215985031  -118.0549318364  -119.0549318364  -117.2215985031  -109.1035819300  -100.1522320235   -91.2008821171   -81.7495322106   -73.1315156375   -63.0134990644   -54.7288158246   -48.1107992515 
   -9.9041700080   -10.9490777867   -10.9939855654   -11.5388933440   -13.7504677894   -15.2953755680   -14.5069500134   -13.0518577920   -11.5518577920   -13.2185244587   -14.2185244587   -13.7185244587   -11.2185244587    -5.2185244587    -0.2185244587     2.9481422080     3.7814755413     5.2814755413     8.2814755413    10.9481422080    14.6148088746    16.7814755413    18.1148088746    18.6148088746    21.6148088746    24.6148088746    24.1148088746    23.2814755413    20.6148088746    15.6148088746    11.6148088746     7.4481422080     5.4481422080     6.6148088746     6.9481422080     6.7814755413     6.2814755413     5.7814755413     3.4481422080     3.2814755413     3.4481422080     6.2814755413     8.6148088746     9.2814755413     9.2814755413     9.7814755413     8.6148088746     9.7814755413    11.6148088746    10.4481422080     8.1148088746     9.6148088746    13.7814755413    17.9481422080    22.1148088746    23.2814755413    22.2814755413    19.7814755413    19.4481422080    19.6148088746    19.7814755413    22.4481422080    25.4481422080    27.4481422080    25.9481422080    26.6148088746    27.2814755413    25.7814755413    21.4481422080    17.9481422080    14.6148088746    12.7814755413    11.6148088746    11.9481422080    11.2814755413     7.1148088746     5.1148088746     0.7814755413    -2.2185244587    -5.2185244587    -8.5518577920   -12.5518577920   -16.2185244587   -19.7185244587   -21.3851911254   -21.7185244587   -23.3851911254   -24.5518577920   -24.5518577920   -27.2185244587   -30.0518577920   -28.0518577920   -26.5518577920   -23.5518577920   -20.5518577920   -16.7185244587   -11.0518577920    -7.5518577920    -3.8851911254    -1.3851911254    -1.2185244587    -3.7185244587    -5.3851911254    -7.5518577920    -8.5518577920    -8.8851911254   -10.8851911254   -14.3851911254   -15.3851911254   -14.0518577920   -12.2185244587   -11.8851911254   -13.7185244587   -11.2185244587   -11.2185244587   -11.2185244587   -10.0518577920    -8.5518577920    -5.3851911254    -1.8851911254    -0.2185244587     2.7814755413    11.1148088746    17.6148088746    21.4481422080    21.9481422080    21.9481422080    21.1148088746    21.1148088746    19.2814755413    17.6148088746    17.9481422080    18.6148088746    19.9481422080    16.4481422080    12.4481422080    10.4481422080     8.7814755413     5.6148088746     4.7814755413     3.4481422080     0.1148088746    -2.0518577920    -2.8851911254    -4.5518577920    -8.8851911254   -11.8851911254   -14.5518577920   -15.3851911254   -17.3851911254   -15.2185244587   -15.7185244587   -18.5518577920   -19.2185244587   -20.3851911254   -23.5518577920   -24.5518577920   -21.3851911254   -17.3851911254   -13.3851911254   -10.3851911254   -10.8851911254   -14.3851911254   -20.0518577920   -27.8851911254   -35.8851911254   -39.2185244587   -35.7185244587   -29.8851911254   -28.8851911254   -37.0518577920   -52.2185244587   -70.0518577920   -93.7185244587  -119.5518577920  -149.3851911254  -185.8851911254  -225.2185244587  -255.5518577920  -306.8851911254  -406.5518577920  -529.0518577920  -613.2185244587  -703.3851911254  -827.3851911254  -959.0518577920 -1163.0518577920 -1402.5518577920 -1667.8851911254 -1864.3851911254 -2041.2185244587 -2083.2185244587 -2184.2185244587 -2389.7185244587 -2573.7185244587 -2764.3851911254 -2797.5518577920 -2459.2185244587 -2108.0518577920 -1777.8851911254 -1446.0518577920 -1290.8851911254 -1250.3851911254 -1242.0518577920  -967.7185244587  -606.0518577920  -246.7185244587  -194.3851911254  -108.7185244587   319.1148088746   589.9481422080   875.4481422080  1191.4481422080  1106.1148088746  1072.7814755413  1025.1148088746   888.6148088746   900.6148088746   934.2814755413  1109.4481422080  1099.2814755413  1070.7814755413   976.2814755413   977.9481422080  1011.1148088746   727.7814755413   729.7814755413   775.4481422080   710.1148088746   581.4481422080   345.1148088746   248.7814755413   275.6148088746   318.9481422080   473.6148088746   574.2814755413   662.9481422080   614.6148088746   546.9481422080   525.2814755413   565.9481422080   735.7814755413   737.4481422080   735.6148088746   705.6148088746   805.6148088746   899.6148088746   850.6148088746   795.4481422080   782.9481422080   841.1148088746   874.9481422080   892.7814755413   939.6148088746  1049.7814755413  1173.7814755413  1218.1148088746  1231.1148088746  1251.1148088746  1230.7814755413  1209.6148088746  1174.6148088746  1145.1148088746  1154.6148088746  1156.7814755413  1132.6148088746  1096.6148088746  1069.4481422080  1020.1148088746   943.1148088746   861.7814755413   794.2814755413   747.6148088746   693.9481422080   649.6148088746   617.4481422080   584.9481422080   550.7814755413   509.6148088746   466.9481422080   429.7814755413   393.9481422080   359.6148088746   331.7814755413   301.1148088746   271.7814755413   250.2814755413   230.1148088746   211.7814755413   191.9481422080   173.4481422080   155.1148088746   135.2814755413   116.7814755413   102.9481422080    89.2814755413    81.7814755413    76.9481422080    72.4481422080    67.4481422080    59.6148088746    53.6148088746    47.1148088746    44.9481422080    43.4481422080    36.9481422080    26.1148088746    19.1148088746    19.9481422080    21.1148088746    23.2814755413    27.1148088746    28.2814755413    28.7814755413    29.7814755413    28.6148088746    28.9481422080    28.4481422080    32.1148088746    34.6148088746    33.9481422080    34.9481422080    37.7814755413    40.7814755413    39.9481422080    39.6148088746    38.9481422080    37.4481422080    36.6148088746    34.6148088746    31.6148088746    29.4481422080    26.4481422080    23.4481422080    18.6148088746    13.6148088746     6.2814755413    -0.3851911254    -9.5518577920   -22.5518577920   -38.5518577920   -54.8851911254   -69.7185244587   -81.0518577920   -94.2185244587  -104.0518577920  -111.7185244587  -119.7185244587  -121.0518577920  -121.5518577920  -128.5518577920  -131.0518577920  -130.2185244587  -130.2185244587  -130.2185244587  -126.5518577920  -123.3851911254  -119.5518577920  -115.5518577920  -113.3851911254  -110.5518577920  -107.5518577920  -104.3851911254  -101.0518577920  -102.7185244587  -106.0518577920  -104.2185244587  -105.3851911254  -109.0518577920  -108.7185244587  -107.3851911254  -110.5518577920  -112.7185244587  -112.2185244587  -113.3851911254  -116.8851911254  -116.3851911254  -117.0518577920  -115.2185244587  -114.5518577920  -115.5518577920  -118.5518577920  -118.0518577920  -114.5518577920  -114.8851911254  -119.2185244587  -125.2185244587  -128.2185244587  -128.5518577920  -127.8851911254  -126.8851911254  -123.0518577920  -124.3851911254  -125.7185244587  -131.0518577920  -135.8851911254  -139.7185244587  -142.0518577920  -146.0518577920  -153.8851911254  -157.2185244587  -160.2185244587  -161.0518577920  -161.8851911254  -162.8851911254  -165.7185244587  -166.0518577920  -167.3851911254  -167.5518577920  -169.7185244587  -169.0518577920  -167.0518577920  -163.8851911254  -159.7185244587  -159.5518577920  -158.3851911254  -153.5518577920  -147.8851911254  -141.2185244587  -136.2185244587  -133.8851911254  -132.3851911254  -130.0518577920  -129.2185244587  -128.7185244587  -126.3851911254  -127.0518577920  -127.7185244587  -128.2185244587  -131.2185244587  -130.0518577920  -129.2185244587  -128.5518577920  -129.7185244587  -133.8851911254  -136.8851911254  -141.8851911254  -143.5518577920  -145.3851911254  -146.2185244587  -147.2185244587  -147.0518577920  -145.5518577920  -144.8851911254  -144.7185244587  -141.5518577920  -139.3851911254  -133.7185244587  -130.3851911254  -126.7185244587  -124.5518577920  -123.3851911254  -118.3851911254  -116.0518577920  -116.5518577920  -118.0518577920  -116.5518577920  -116.5518577920  -117.2185244587  -116.8851911254  -115.8851911254  -115.2185244587  -114.2185244587  -115.8851911254  -120.7185244587  -122.5518577920  -122.7185244587  -118.8851911254  -114.0518577920  -108.8851911254  -104.5518577920  -101.5518577920  -101.5518577920   -93.1736166800   -84.1287089014   -75.4171344560   -67.5388933440   -60.3273188987   -53.9490777867   -47.7375033414   -38.1925955627 
    6.9582332533     7.6387776888     6.4859887910     3.4998665599     0.1804109954    -4.1390445690    -8.2918334668   -13.9446223646   -15.9446223646   -18.6112890312   -24.7779556979   -30.1112890312   -29.9446223646   -28.7779556979   -25.7779556979   -24.4446223646   -25.1112890312   -26.4446223646   -26.6112890312   -24.1112890312   -21.2779556979   -16.9446223646   -12.4446223646    -6.4446223646    -0.9446223646     0.7220443021    -0.7779556979    -1.2779556979    -6.4446223646   -11.9446223646   -16.1112890312   -20.1112890312   -22.2779556979   -22.6112890312   -21.7779556979   -20.7779556979   -18.7779556979   -15.6112890312   -12.1112890312    -9.4446223646    -9.1112890312    -7.7779556979    -2.4446223646     1.7220443021     6.7220443021    10.5553776354    10.0553776354    12.0553776354    13.7220443021    13.3887109688    12.0553776354     9.5553776354     6.3887109688     2.0553776354    -3.4446223646    -7.9446223646   -12.1112890312   -14.2779556979   -15.4446223646   -16.7779556979   -17.2779556979   -15.4446223646   -12.1112890312   -12.2779556979   -14.4446223646   -16.9446223646   -17.4446223646   -18.1112890312   -17.7779556979   -14.7779556979   -10.6112890312    -6.9446223646    -2.1112890312     2.3887109688     3.8887109688     5.0553776354     5.2220443021     5.3887109688     7.7220443021    11.2220443021    14.3887109688    18.7220443021    20.8887109688    22.0553776354    21.8887109688    20.5553776354    19.3887109688    17.7220443021    13.2220443021    11.8887109688    10.5553776354     6.2220443021     3.5553776354     1.2220443021    -3.9446223646   -10.1112890312   -13.1112890312   -13.6112890312   -13.4446223646   -11.6112890312    -9.7779556979   -13.7779556979   -15.6112890312   -15.2779556979   -13.4446223646   -15.1112890312   -17.7779556979   -16.6112890312   -13.9446223646   -12.2779556979    -9.9446223646    -8.9446223646    -8.6112890312    -9.9446223646   -11.6112890312   -13.6112890312   -15.9446223646   -15.4446223646   -17.9446223646   -20.2779556979   -23.9446223646   -26.9446223646   -29.2779556979   -30.2779556979   -32.4446223646   -36.2779556979   -40.9446223646   -42.7779556979   -41.7779556979   -40.6112890312   -40.7779556979   -40.6112890312   -39.4446223646   -36.1112890312   -29.1112890312   -23.6112890312   -18.9446223646   -15.9446223646   -12.6112890312    -9.1112890312    -7.6112890312    -5.9446223646    -1.9446223646     2.8887109688     5.7220443021     7.7220443021     9.5553776354    10.8887109688    10.2220443021     9.5553776354     3.8887109688    -1.6112890312    -2.6112890312    -0.2779556979     2.3887109688    -0.7779556979    -4.4446223646    -5.4446223646    -5.4446223646    -6.7779556979   -10.7779556979   -13.6112890312   -13.6112890312   -15.1112890312   -16.2779556979   -20.6112890312   -31.7779556979   -52.9446223646   -69.7779556979   -89.2779556979  -127.1112890312  -189.9446223646  -240.2779556979  -271.7779556979  -283.2779556979  -326.4446223646  -389.7779556979  -456.9446223646  -533.6112890312  -577.9446223646  -647.6112890312  -708.6112890312  -721.2779556979  -708.6112890312  -664.4446223646  -685.6112890312  -766.2779556979  -796.6112890312  -852.1112890312  -943.4446223646 -1102.1112890312 -1252.1112890312 -1375.4446223646 -1484.1112890312 -1621.9446223646 -1792.2779556979 -1795.2779556979 -1602.9446223646 -1373.6112890312 -1267.6112890312 -1348.1112890312 -1278.6112890312 -1142.2779556979 -1136.4446223646 -1121.7779556979 -1006.9446223646  -821.7779556979  -558.6112890312  -303.9446223646   -71.1112890312   248.3887109688   500.8887109688   622.3887109688   584.2220443021   589.5553776354   660.5553776354   778.0553776354   744.2220443021   738.8887109688   738.2220443021   744.7220443021   739.3887109688   759.8887109688   709.8887109688   693.7220443021   671.3887109688   630.2220443021   657.5553776354   649.3887109688   469.5553776354   247.8887109688   146.3887109688   152.0553776354   216.3887109688   190.5553776354   300.8887109688   478.8887109688   586.5553776354   647.3887109688   719.0553776354   738.3887109688   768.0553776354   780.8887109688   779.5553776354   779.7220443021   845.7220443021   844.3887109688   807.2220443021   798.2220443021   816.0553776354   916.2220443021   990.8887109688  1004.0553776354  1025.7220443021  1037.3887109688  1030.8887109688  1041.5553776354  1038.7220443021  1026.7220443021  1042.2220443021  1073.3887109688  1165.7220443021  1254.0553776354  1299.2220443021  1306.7220443021  1286.0553776354  1245.0553776354  1191.8887109688  1130.8887109688  1061.5553776354   997.7220443021   951.8887109688   908.3887109688   877.3887109688   831.3887109688   774.5553776354   719.3887109688   660.8887109688   591.5553776354   526.3887109688   461.0553776354   403.5553776354   357.5553776354   316.3887109688   270.5553776354   216.2220443021   160.8887109688   113.2220443021    73.8887109688    47.7220443021    34.8887109688    18.2220443021     7.3887109688     1.3887109688    -3.6112890312   -15.4446223646   -26.7779556979   -33.2779556979   -36.4446223646   -39.9446223646   -39.2779556979   -35.9446223646   -31.7779556979   -27.1112890312   -29.1112890312   -38.2779556979   -47.4446223646   -54.6112890312   -59.2779556979   -63.9446223646   -70.4446223646   -76.9446223646   -76.9446223646   -78.6112890312   -83.1112890312   -86.4446223646   -93.6112890312   -95.6112890312   -97.1112890312  -103.4446223646  -107.9446223646  -110.6112890312  -114.1112890312  -117.2779556979  -127.2779556979  -136.6112890312  -140.7779556979  -141.2779556979  -143.1112890312  -145.6112890312  -149.2779556979  -151.9446223646  -149.4446223646  -149.4446223646  -150.2779556979  -151.1112890312  -152.9446223646  -156.1112890312  -160.4446223646  -163.7779556979  -162.1112890312  -161.1112890312  -161.4446223646  -161.4446223646  -161.9446223646  -163.9446223646  -166.9446223646  -169.2779556979  -171.6112890312  -172.6112890312  -170.6112890312  -170.7779556979  -172.1112890312  -172.4446223646  -169.9446223646  -168.4446223646  -167.7779556979  -166.1112890312  -163.4446223646  -161.9446223646  -160.1112890312  -159.1112890312  -156.4446223646  -155.1112890312  -152.2779556979  -151.2779556979  -153.9446223646  -154.1112890312  -152.1112890312  -151.6112890312  -153.4446223646  -156.9446223646  -157.6112890312  -155.9446223646  -153.1112890312  -151.9446223646  -152.1112890312  -149.7779556979  -149.1112890312  -148.6112890312  -147.2779556979  -150.7779556979  -151.7779556979  -150.2779556979  -148.4446223646  -147.7779556979  -148.9446223646  -147.1112890312  -144.2779556979  -144.4446223646  -146.1112890312  -147.1112890312  -147.9446223646  -149.2779556979  -149.1112890312  -148.6112890312  -149.4446223646  -143.9446223646  -137.7779556979  -135.7779556979  -132.6112890312  -128.2779556979  -124.1112890312  -122.9446223646  -125.7779556979  -128.6112890312  -130.9446223646  -129.7779556979  -129.2779556979  -127.7779556979  -128.2779556979  -128.9446223646  -131.2779556979  -134.4446223646  -137.4446223646  -137.1112890312  -139.4446223646  -140.7779556979  -141.7779556979  -142.9446223646  -143.4446223646  -142.4446223646  -139.7779556979  -139.6112890312  -136.1112890312  -133.1112890312  -127.7779556979  -122.9446223646  -118.1112890312  -114.1112890312  -112.7779556979  -115.7779556979  -118.9446223646  -120.2779556979  -122.7779556979  -122.7779556979  -121.1112890312  -117.4446223646  -116.9446223646  -119.1112890312  -124.1112890312  -129.1112890312  -132.1112890312  -134.2779556979  -135.7779556979  -137.4446223646  -138.2779556979  -133.9446223646  -126.7779556979  -123.7779556979  -119.6112890312  -117.2779556979  -115.2779556979  -114.7779556979  -113.2779556979  -109.1112890312  -104.6112890312  -100.1112890312   -97.7779556979   -96.2779556979   -96.2779556979   -98.4446223646   -99.7779556979  -100.6112890312  -102.6112890312  -101.6112890312   -97.1112890312   -92.1112890312   -89.6112890312   -89.2779556979   -89.4446223646   -89.2779556979   -89.1112890312   -83.6251668001   -77.9723779023   -72.3195890046   -65.6668001068   -56.0140112090   -47.0278889779   -40.3751000801   -34.3889778490 
  -10.7504670403   -11.4079263411   -12.5653856418   -13.0561782760   -16.0469709101   -21.0377635442   -26.0285561783   -27.8526821457   -24.6860154791   -21.1860154791   -19.8526821457   -19.6860154791   -18.5193488124   -17.0193488124   -17.0193488124   -18.3526821457   -20.0193488124   -22.3526821457   -23.0193488124   -25.1860154791   -23.6860154791   -18.5193488124   -14.1860154791   -10.3526821457    -8.6860154791    -7.5193488124    -6.8526821457    -4.0193488124    -1.6860154791    -0.1860154791     1.8139845209     5.4806511876     8.6473178543    11.9806511876    12.9806511876    14.8139845209    16.8139845209    18.3139845209    22.3139845209    23.3139845209    20.9806511876    20.4806511876    18.8139845209    18.1473178543    13.8139845209    11.4806511876    10.6473178543     9.4806511876    10.4806511876    12.1473178543    13.4806511876    15.6473178543    15.4806511876    15.8139845209    15.1473178543    14.4806511876    17.3139845209    18.6473178543    24.3139845209    26.9806511876    30.4806511876    31.9806511876    33.1473178543    35.6473178543    34.6473178543    30.3139845209    28.8139845209    25.1473178543    23.6473178543    20.4806511876    14.8139845209    10.6473178543     6.1473178543     2.8139845209    -3.0193488124    -9.3526821457   -13.6860154791   -15.8526821457   -17.8526821457   -22.8526821457   -24.1860154791   -23.0193488124   -24.0193488124   -21.6860154791   -23.1860154791   -24.5193488124   -23.6860154791   -25.0193488124   -27.0193488124   -29.3526821457   -31.8526821457   -33.8526821457   -36.5193488124   -39.0193488124   -42.8526821457   -44.3526821457   -47.3526821457   -49.6860154791   -51.3526821457   -54.3526821457   -55.5193488124   -53.8526821457   -52.1860154791   -50.5193488124   -50.0193488124   -47.6860154791   -42.1860154791   -34.1860154791   -26.5193488124   -23.1860154791   -18.3526821457   -14.3526821457    -9.3526821457    -6.5193488124    -3.3526821457    -2.8526821457    -0.6860154791     1.3139845209     1.6473178543     2.9806511876     6.8139845209     8.3139845209     6.4806511876     2.8139845209     0.8139845209     0.4806511876    -0.0193488124    -1.6860154791    -5.1860154791    -7.0193488124    -9.0193488124    -8.5193488124    -7.6860154791    -9.0193488124   -10.8526821457   -12.5193488124   -15.5193488124   -15.3526821457   -14.0193488124   -14.1860154791   -15.5193488124   -17.0193488124   -17.3526821457   -16.3526821457   -16.8526821457   -17.6860154791   -18.1860154791   -16.0193488124   -15.3526821457   -15.3526821457   -16.3526821457   -16.0193488124   -12.1860154791   -12.1860154791   -16.8526821457   -23.1860154791   -32.8526821457   -38.5193488124   -41.0193488124   -40.0193488124   -39.6860154791   -42.1860154791   -43.6860154791   -55.0193488124   -72.6860154791   -86.8526821457  -101.5193488124  -114.6860154791  -125.3526821457  -137.3526821457  -151.1860154791  -167.0193488124  -166.0193488124  -178.8526821457  -207.5193488124  -253.6860154791  -274.6860154791  -294.5193488124  -341.1860154791  -409.5193488124  -462.6860154791  -510.0193488124  -578.0193488124  -634.8526821457  -697.3526821457  -780.3526821457  -946.8526821457 -1132.1860154791 -1363.3526821457 -1559.6860154791 -1675.1860154791 -1690.3526821457 -1834.8526821457 -2001.5193488124 -1991.8526821457 -1758.8526821457 -1596.5193488124 -1621.6860154791 -1609.5193488124 -1464.5193488124 -1302.8526821457 -1266.3526821457 -1235.5193488124 -1111.0193488124  -815.1860154791  -554.5193488124  -382.6860154791  -374.6860154791  -259.1860154791    39.9806511876   283.8139845209   260.6473178543   286.3139845209   358.6473178543   322.8139845209   298.1473178543   289.4806511876   427.1473178543   610.3139845209   649.9806511876   616.3139845209   524.1473178543   491.8139845209   626.8139845209   677.8139845209   652.1473178543   573.4806511876   544.1473178543   419.6473178543   448.8139845209   606.9806511876   617.8139845209   634.9806511876   678.9806511876   724.9806511876   769.9806511876   762.4806511876   810.8139845209   841.1473178543   818.6473178543   888.3139845209   868.8139845209   801.6473178543   733.4806511876   753.9806511876   784.6473178543   778.4806511876   747.4806511876   698.8139845209   630.9806511876   607.1473178543   663.6473178543   744.9806511876   862.9806511876   938.8139845209   963.6473178543   975.8139845209   996.4806511876  1018.3139845209  1055.3139845209  1111.4806511876  1139.3139845209  1152.3139845209  1170.1473178543  1168.8139845209  1164.8139845209  1163.9806511876  1156.9806511876  1108.9806511876  1027.4806511876   957.3139845209   904.3139845209   853.8139845209   797.1473178543   747.9806511876   703.9806511876   659.8139845209   606.1473178543   562.4806511876   524.1473178543   480.1473178543   432.8139845209   386.8139845209   343.3139845209   298.1473178543   265.1473178543   238.6473178543   216.6473178543   194.6473178543   176.4806511876   151.3139845209   134.1473178543   120.1473178543   110.6473178543   106.9806511876   106.8139845209   111.4806511876   115.3139845209   118.8139845209   119.8139845209   122.4806511876   126.6473178543   132.4806511876   130.3139845209   128.1473178543   123.3139845209   122.6473178543   116.9806511876   111.3139845209   107.8139845209   103.6473178543    99.9806511876    94.3139845209    88.6473178543    80.3139845209    71.1473178543    67.3139845209    61.3139845209    56.6473178543    49.4806511876    44.1473178543    38.6473178543    31.1473178543    23.9806511876    14.3139845209     2.3139845209    -7.8526821457   -17.1860154791   -27.0193488124   -36.1860154791   -44.6860154791   -51.1860154791   -57.1860154791   -66.1860154791   -78.5193488124   -87.1860154791   -96.1860154791  -100.0193488124  -104.1860154791  -106.5193488124  -109.3526821457  -112.3526821457  -114.0193488124  -117.0193488124  -118.3526821457  -121.0193488124  -122.3526821457  -123.1860154791  -127.1860154791  -129.8526821457  -131.1860154791  -133.8526821457  -135.5193488124  -140.6860154791  -144.1860154791  -147.1860154791  -148.0193488124  -147.6860154791  -154.0193488124  -161.0193488124  -167.0193488124  -168.5193488124  -169.1860154791  -171.8526821457  -173.6860154791  -174.3526821457  -173.1860154791  -172.1860154791  -175.3526821457  -175.5193488124  -174.6860154791  -174.8526821457  -176.5193488124  -178.1860154791  -175.3526821457  -171.8526821457  -170.8526821457  -172.0193488124  -173.6860154791  -174.3526821457  -178.1860154791  -182.8526821457  -186.6860154791  -187.3526821457  -184.1860154791  -184.0193488124  -184.8526821457  -185.1860154791  -185.1860154791  -185.3526821457  -186.0193488124  -185.8526821457  -184.3526821457  -183.6860154791  -182.6860154791  -180.8526821457  -177.3526821457  -173.1860154791  -170.3526821457  -169.5193488124  -169.8526821457  -168.6860154791  -165.8526821457  -163.5193488124  -162.6860154791  -167.3526821457  -168.8526821457  -170.1860154791  -170.3526821457  -168.3526821457  -167.3526821457  -167.1860154791  -163.6860154791  -158.1860154791  -153.1860154791  -150.1860154791  -147.6860154791  -145.5193488124  -144.5193488124  -145.6860154791  -146.1860154791  -142.0193488124  -138.3526821457  -134.3526821457  -130.5193488124  -131.3526821457  -131.5193488124  -131.1860154791  -131.6860154791  -133.3526821457  -139.3526821457  -140.6860154791  -140.3526821457  -139.6860154791  -140.0193488124  -140.6860154791  -140.1860154791  -137.8526821457  -135.8526821457  -134.8526821457  -137.0193488124  -135.1860154791  -133.3526821457  -132.1860154791  -134.1860154791  -137.1860154791  -135.5193488124  -135.8526821457  -133.5193488124  -130.8526821457  -127.6860154791  -124.8526821457  -122.3526821457  -121.5193488124  -121.3526821457  -121.6860154791  -119.3526821457  -118.5193488124  -117.8526821457  -116.1860154791  -111.5193488124  -106.5193488124  -102.8526821457   -98.6860154791   -95.6860154791   -94.0193488124   -91.5193488124   -87.3526821457   -83.8526821457   -79.0193488124   -77.0193488124   -72.8526821457   -68.5193488124   -61.8618895116   -55.2044302108   -49.3803042434   -44.3895116093   -39.3987189752   -33.2412596744   -28.5838003736   -25.9263410729 
   -5.8285217856    -7.1613205025    -7.4941192195    -8.8269179364    -9.4930499866   -11.4925153702   -13.6586474205   -14.8247794707   -14.3247794707   -17.1581128041   -21.8247794707   -23.4914461374   -23.4914461374   -23.6581128041   -21.9914461374   -22.4914461374   -20.6581128041   -19.8247794707   -19.6581128041   -17.8247794707   -17.1581128041   -14.6581128041   -12.3247794707   -12.8247794707   -15.6581128041   -17.6581128041   -16.9914461374   -15.3247794707   -14.4914461374   -15.4914461374   -17.6581128041   -19.9914461374   -21.8247794707   -21.6581128041   -21.9914461374   -22.6581128041   -24.4914461374   -26.1581128041   -25.3247794707   -23.8247794707   -21.9914461374   -20.6581128041   -18.6581128041   -16.6581128041   -16.3247794707   -14.4914461374   -12.8247794707   -10.6581128041   -10.1581128041   -10.6581128041   -11.8247794707   -13.9914461374   -14.6581128041   -16.4914461374   -20.4914461374   -23.3247794707   -27.8247794707   -27.6581128041   -29.8247794707   -31.1581128041   -32.4914461374   -31.4914461374   -30.9914461374   -30.6581128041   -29.4914461374   -28.8247794707   -26.6581128041   -21.6581128041   -17.1581128041   -14.1581128041   -12.8247794707   -12.4914461374    -7.4914461374    -2.9914461374     1.6752205293     2.8418871959     7.0085538626     8.0085538626     8.0085538626     6.1752205293     2.6752205293    -0.6581128041    -1.9914461374    -2.8247794707    -4.9914461374    -6.8247794707    -6.8247794707    -3.3247794707    -3.1581128041    -6.1581128041    -7.8247794707    -7.4914461374    -8.1581128041    -9.8247794707   -11.6581128041   -11.3247794707   -10.6581128041    -9.1581128041    -9.1581128041   -11.9914461374   -14.6581128041   -15.9914461374   -16.3247794707   -19.1581128041   -20.3247794707   -21.3247794707   -22.9914461374   -21.9914461374   -20.8247794707   -20.8247794707   -20.4914461374   -18.4914461374   -14.8247794707   -10.8247794707    -9.1581128041    -6.1581128041    -0.4914461374     4.5085538626     8.5085538626    11.3418871959    11.6752205293    13.8418871959    16.1752205293    14.8418871959    14.8418871959    17.6752205293    18.3418871959    17.3418871959    15.5085538626    12.5085538626     8.8418871959     6.8418871959     3.0085538626     0.0085538626    -3.8247794707    -7.6581128041    -9.1581128041   -11.4914461374   -12.1581128041   -12.1581128041   -16.8247794707   -22.3247794707   -22.9914461374   -23.1581128041   -22.8247794707   -23.6581128041   -23.6581128041   -27.8247794707   -28.9914461374   -30.8247794707   -32.9914461374   -33.9914461374   -36.3247794707   -38.4914461374   -40.8247794707   -42.8247794707   -42.9914461374   -40.4914461374   -40.8247794707   -42.6581128041   -45.1581128041   -47.6581128041   -51.1581128041   -52.8247794707   -57.3247794707   -60.3247794707   -63.6581128041   -69.3247794707   -73.4914461374   -73.6581128041   -77.8247794707   -85.6581128041   -93.3247794707   -99.6581128041  -102.8247794707  -108.6581128041  -127.6581128041  -153.4914461374  -180.8247794707  -219.6581128041  -274.4914461374  -341.3247794707  -433.8247794707  -521.3247794707  -570.1581128041  -653.6581128041  -774.3247794707  -941.8247794707 -1131.4914461374 -1316.6581128041 -1496.1581128041 -1605.1581128041 -1690.9914461374 -1764.8247794707 -1816.3247794707 -1966.1581128041 -2151.1581128041 -2179.6581128041 -2075.8247794707 -2040.4914461374 -2135.3247794707 -2119.9914461374 -1905.4914461374 -1654.1581128041 -1390.1581128041 -1205.1581128041 -1176.1581128041 -1148.1581128041 -1073.8247794707  -965.8247794707  -793.4914461374  -574.9914461374  -232.6581128041   -17.3247794707   -75.4914461374   -91.6581128041   182.5085538626   363.5085538626   402.8418871959   519.5085538626   574.6752205293   705.3418871959   901.0085538626  1053.6752205293  1054.8418871959   930.8418871959   882.5085538626   916.0085538626   764.5085538626   693.0085538626   841.1752205293   997.5085538626   993.3418871959   966.6752205293   865.6752205293   739.1752205293   650.1752205293   528.3418871959   506.1752205293   508.1752205293   603.3418871959   755.5085538626   795.8418871959   777.8418871959   828.3418871959   801.3418871959   747.1752205293   719.3418871959   568.0085538626   491.3418871959   535.6752205293   562.6752205293   601.5085538626   667.3418871959   749.6752205293   798.6752205293   847.8418871959   923.8418871959   927.3418871959   969.5085538626  1059.0085538626  1121.6752205293  1164.6752205293  1196.3418871959  1309.8418871959  1373.8418871959  1376.3418871959  1353.8418871959  1358.0085538626  1352.3418871959  1278.1752205293  1198.0085538626  1137.1752205293  1092.1752205293  1062.6752205293  1025.3418871959   980.5085538626   938.6752205293   886.6752205293   833.3418871959   783.1752205293   737.1752205293   681.3418871959   625.3418871959   556.6752205293   496.6752205293   470.8418871959   434.5085538626   380.3418871959   312.3418871959   253.3418871959   200.8418871959   155.1752205293   112.8418871959    79.0085538626    40.8418871959     3.1752205293   -24.6581128041   -45.4914461374   -59.9914461374   -68.6581128041   -76.9914461374   -87.6581128041   -94.9914461374   -99.9914461374  -102.3247794707  -100.1581128041   -96.3247794707   -93.9914461374   -95.3247794707   -98.9914461374   -94.9914461374   -91.3247794707   -91.3247794707   -94.1581128041  -102.1581128041  -106.9914461374  -108.1581128041  -105.4914461374  -101.9914461374  -100.9914461374  -100.3247794707  -103.6581128041  -105.3247794707  -107.1581128041  -105.1581128041  -104.6581128041  -104.1581128041  -104.4914461374  -104.6581128041  -103.4914461374  -102.8247794707  -102.8247794707  -102.4914461374  -102.3247794707  -106.6581128041  -112.4914461374  -118.6581128041  -122.4914461374  -126.8247794707  -133.1581128041  -140.6581128041  -146.1581128041  -151.8247794707  -156.8247794707  -160.9914461374  -165.3247794707  -167.9914461374  -171.3247794707  -176.8247794707  -182.4914461374  -183.6581128041  -181.4914461374  -178.3247794707  -177.3247794707  -175.9914461374  -172.3247794707  -168.6581128041  -164.8247794707  -164.9914461374  -165.8247794707  -168.9914461374  -170.4914461374  -170.8247794707  -169.9914461374  -172.3247794707  -173.1581128041  -173.3247794707  -174.6581128041  -176.9914461374  -178.6581128041  -180.1581128041  -183.1581128041  -185.3247794707  -189.1581128041  -190.3247794707  -189.4914461374  -186.8247794707  -183.9914461374  -183.1581128041  -182.8247794707  -178.1581128041  -172.8247794707  -170.8247794707  -166.9914461374  -163.6581128041  -160.9914461374  -159.1581128041  -157.1581128041  -154.9914461374  -152.1581128041  -147.3247794707  -143.8247794707  -141.3247794707  -140.3247794707  -138.6581128041  -137.4914461374  -138.3247794707  -142.1581128041  -143.6581128041  -145.9914461374  -145.8247794707  -144.4914461374  -142.8247794707  -140.3247794707  -139.1581128041  -139.6581128041  -143.6581128041  -148.1581128041  -152.3247794707  -154.8247794707  -155.6581128041  -154.6581128041  -151.6581128041  -146.4914461374  -142.9914461374  -140.1581128041  -140.8247794707  -141.6581128041  -145.6581128041  -149.3247794707  -150.9914461374  -149.6581128041  -146.1581128041  -139.4914461374  -135.4914461374  -134.3247794707  -134.4914461374  -135.9914461374  -137.8247794707  -142.9914461374  -147.9914461374  -152.3247794707  -154.1581128041  -156.8247794707  -157.6581128041  -160.3247794707  -162.4914461374  -167.1581128041  -172.3247794707  -179.4914461374  -183.1581128041  -184.8247794707  -183.8247794707  -183.3247794707  -183.1581128041  -180.9914461374  -174.9914461374  -170.9914461374  -169.1581128041  -165.4914461374  -159.9914461374  -153.8247794707  -147.9914461374  -141.3247794707  -136.8247794707  -132.4914461374  -127.6581128041  -122.6581128041  -120.3247794707  -117.8247794707  -115.1581128041  -111.8247794707  -110.3247794707  -109.3247794707  -105.3247794707  -103.3247794707   -99.6581128041   -94.6581128041   -91.9914461374   -91.1581128041   -89.3247794707   -86.6581128041   -80.1586474205   -74.1591820369   -67.3263833200   -60.1602512697   -53.1607858861   -46.8279871692   -41.3285217856   -34.3290564020 
   18.4916067146    20.8610444977    21.8971489475    23.9332533973    24.9693578471    27.6721289635    30.2082334133    32.0776711964    31.9110045297    30.2443378631    29.7443378631    29.7443378631    29.7443378631    25.5776711964    20.4110045297    17.9110045297    15.7443378631    15.2443378631    18.9110045297    20.0776711964    21.0776711964    21.2443378631    16.5776711964    13.9110045297    12.0776711964    10.5776711964     7.9110045297     4.4110045297     2.4110045297     4.4110045297     5.5776711964     6.9110045297     8.2443378631     6.4110045297     1.7443378631    -1.5889954703    -4.9223288036    -7.2556621369    -3.9223288036    -3.2556621369    -1.7556621369    -1.7556621369    -1.0889954703    -2.4223288036    -2.5889954703    -1.5889954703     0.9110045297     0.9110045297    -0.0889954703    -1.0889954703    -3.7556621369    -7.9223288036    -8.5889954703   -10.7556621369   -12.0889954703   -11.4223288036   -13.5889954703   -13.0889954703   -12.7556621369   -10.9223288036   -13.0889954703   -17.9223288036   -23.7556621369   -28.5889954703   -34.5889954703   -36.5889954703   -35.7556621369   -32.0889954703   -30.0889954703   -26.7556621369   -24.5889954703   -22.7556621369   -17.5889954703   -14.7556621369   -13.2556621369    -9.0889954703    -5.2556621369    -3.4223288036    -1.5889954703     0.5776711964     3.2443378631     3.5776711964     6.5776711964     8.7443378631     9.0776711964     7.9110045297     7.4110045297     4.9110045297     1.5776711964    -1.2556621369    -3.5889954703    -6.9223288036    -5.9223288036    -1.0889954703     2.9110045297     4.0776711964     6.2443378631     7.7443378631     4.7443378631     1.7443378631     0.9110045297     1.0776711964     0.2443378631    -0.9223288036    -2.2556621369    -3.4223288036    -3.0889954703    -2.9223288036    -5.4223288036   -11.9223288036   -16.4223288036   -19.0889954703   -19.9223288036   -20.9223288036   -20.7556621369   -20.2556621369   -19.9223288036   -21.2556621369   -22.0889954703   -22.5889954703   -22.4223288036   -19.7556621369   -18.7556621369   -17.9223288036   -13.2556621369    -5.2556621369    -2.0889954703    -0.9223288036    -3.9223288036    -7.4223288036    -9.7556621369   -10.0889954703    -8.5889954703    -6.5889954703    -3.5889954703     3.0776711964    10.7443378631    15.2443378631    17.0776711964    16.4110045297    13.4110045297     9.4110045297    12.9110045297    17.7443378631    22.2443378631    24.9110045297    30.4110045297    35.5776711964    38.7443378631    39.9110045297    36.2443378631    28.2443378631    17.7443378631    11.7443378631     7.5776711964     3.5776711964     4.9110045297     5.0776711964    -1.4223288036    -7.7556621369   -10.9223288036   -10.9223288036   -14.5889954703   -18.4223288036   -23.5889954703   -29.4223288036   -40.4223288036   -62.7556621369   -90.0889954703  -110.7556621369  -121.9223288036  -141.9223288036  -181.4223288036  -224.9223288036  -282.2556621369  -357.9223288036  -441.7556621369  -528.2556621369  -622.4223288036  -713.4223288036  -793.4223288036  -843.7556621369  -896.4223288036  -915.9223288036 -1040.4223288036 -1291.0889954703 -1544.2556621369 -1534.4223288036 -1413.5889954703 -1354.9223288036 -1414.9223288036 -1522.9223288036 -1649.2556621369 -1679.2556621369 -1602.2556621369 -1554.0889954703 -1374.7556621369 -1351.0889954703 -1393.4223288036 -1195.7556621369  -825.4223288036  -463.7556621369  -234.9223288036  -225.9223288036  -419.0889954703  -434.0889954703  -268.0889954703  -170.0889954703   130.2443378631   466.7443378631   596.7443378631   778.4110045297   864.0776711964   970.5776711964   961.2443378631   718.0776711964   640.5776711964   677.4110045297   744.9110045297   768.5776711964   805.5776711964   668.7443378631   680.7443378631   853.0776711964   823.9110045297   484.7443378631   316.4110045297   258.5776711964    44.4110045297    73.5776711964   292.5776711964   510.4110045297   521.2443378631   539.9110045297   538.4110045297   476.7443378631   613.9110045297   898.4110045297  1026.4110045297  1057.7443378631  1081.9110045297  1197.5776711964  1311.5776711964  1280.0776711964  1426.0776711964  1429.0776711964  1389.2443378631  1332.4110045297  1231.0776711964  1135.7443378631  1123.7443378631  1192.7443378631  1187.0776711964  1082.7443378631   899.2443378631   798.0776711964   758.0776711964   793.4110045297   795.0776711964   829.7443378631   809.4110045297   753.9110045297   715.9110045297   693.4110045297   702.5776711964   718.0776711964   754.0776711964   770.4110045297   726.0776711964   714.5776711964   757.4110045297   805.7443378631   824.4110045297   856.5776711964   846.2443378631   794.4110045297   720.0776711964   681.7443378631   672.0776711964   638.2443378631   591.0776711964   531.2443378631   497.2443378631   477.2443378631   480.2443378631   461.4110045297   422.9110045297   360.7443378631   303.4110045297   243.7443378631   198.0776711964   166.9110045297   148.9110045297   138.0776711964   127.4110045297   112.7443378631   100.5776711964    94.7443378631    79.5776711964    62.0776711964    49.4110045297    40.7443378631    33.4110045297    32.9110045297    24.4110045297    16.4110045297     8.9110045297    -1.0889954703   -16.0889954703   -31.5889954703   -48.7556621369   -59.0889954703   -70.7556621369   -86.5889954703  -109.2556621369  -135.4223288036  -157.7556621369  -179.0889954703  -193.9223288036  -209.5889954703  -224.7556621369  -238.9223288036  -254.9223288036  -266.7556621369  -277.2556621369  -286.5889954703  -295.2556621369  -305.4223288036  -310.7556621369  -313.7556621369  -313.9223288036  -311.4223288036  -315.0889954703  -318.9223288036  -321.2556621369  -321.4223288036  -318.7556621369  -313.9223288036  -307.5889954703  -301.2556621369  -295.0889954703  -289.5889954703  -280.9223288036  -272.9223288036  -264.7556621369  -258.5889954703  -252.2556621369  -245.9223288036  -238.0889954703  -233.7556621369  -232.4223288036  -233.0889954703  -230.7556621369  -229.7556621369  -233.7556621369  -236.9223288036  -236.2556621369  -233.5889954703  -233.4223288036  -234.2556621369  -235.7556621369  -237.0889954703  -238.5889954703  -239.4223288036  -239.9223288036  -241.2556621369  -239.9223288036  -236.2556621369  -234.2556621369  -235.0889954703  -231.7556621369  -230.5889954703  -230.0889954703  -233.7556621369  -238.0889954703  -240.4223288036  -240.9223288036  -238.9223288036  -237.4223288036  -237.4223288036  -235.9223288036  -232.0889954703  -229.4223288036  -228.2556621369  -228.4223288036  -223.7556621369  -220.2556621369  -214.2556621369  -212.4223288036  -208.9223288036  -206.2556621369  -202.7556621369  -201.0889954703  -202.5889954703  -203.5889954703  -204.0889954703  -202.4223288036  -201.0889954703  -199.0889954703  -198.0889954703  -198.4223288036  -198.5889954703  -194.5889954703  -191.9223288036  -190.2556621369  -186.4223288036  -182.2556621369  -178.5889954703  -176.7556621369  -175.7556621369  -174.7556621369  -171.4223288036  -170.7556621369  -167.9223288036  -166.4223288036  -167.5889954703  -167.2556621369  -165.9223288036  -163.4223288036  -163.2556621369  -160.4223288036  -160.2556621369  -158.2556621369  -158.0889954703  -156.9223288036  -153.9223288036  -148.4223288036  -146.5889954703  -144.7556621369  -146.4223288036  -148.2556621369  -144.7556621369  -137.0889954703  -133.5889954703  -134.9223288036  -135.4223288036  -132.0889954703  -128.4223288036  -127.2556621369  -124.7556621369  -119.4223288036  -112.7556621369  -105.9223288036   -98.0889954703   -94.9223288036   -91.4223288036   -86.4223288036   -81.4223288036   -80.5889954703   -80.0889954703   -80.5889954703   -79.9223288036   -80.9223288036   -81.2556621369   -82.2556621369   -83.7556621369   -85.9223288036   -86.9223288036   -92.0889954703   -98.7556621369  -101.7556621369  -101.2556621369  -101.4223288036  -106.7556621369  -112.2556621369  -116.5889954703  -115.5889954703  -111.9223288036  -109.7556621369  -105.5889954703  -101.0889954703   -98.2556621369   -95.9223288036   -91.4584332534   -84.9945377032   -77.0306421529   -68.7334132694   -62.6028510525   -56.9722888356   -48.0083932854   -38.0444977351 
   26.8788968825    28.6432187583    30.2408739675    28.6718625100    26.4361843858    26.0338395950    27.1314948042    27.3958166800    23.3958166800    19.8958166800    16.7291500133    12.7291500133     9.5624833467     6.3958166800     4.8958166800     4.2291500133     4.2291500133     3.0624833467     2.5624833467     3.7291500133     6.5624833467     9.3958166800    10.7291500133    12.2291500133    15.2291500133    18.0624833467    23.5624833467    29.8958166800    34.3958166800    34.8958166800    35.2291500133    36.3958166800    38.0624833467    39.7291500133    42.0624833467    45.0624833467    47.7291500133    49.7291500133    51.0624833467    52.3958166800    52.5624833467    53.3958166800    50.3958166800    44.5624833467    38.3958166800    33.8958166800    29.5624833467    25.8958166800    23.0624833467    15.7291500133     8.5624833467     4.7291500133     1.3958166800    -3.4375166533    -7.1041833200   -11.4375166533   -14.6041833200   -18.1041833200   -21.1041833200   -24.1041833200   -22.7708499867   -18.9375166533   -16.4375166533   -17.1041833200   -18.7708499867   -15.1041833200   -13.6041833200   -14.7708499867   -19.1041833200   -22.6041833200   -24.2708499867   -24.4375166533   -26.7708499867   -30.7708499867   -34.2708499867   -35.2708499867   -37.7708499867   -40.4375166533   -41.6041833200   -40.6041833200   -38.2708499867   -37.2708499867   -36.4375166533   -34.7708499867   -30.7708499867   -25.4375166533   -23.4375166533   -22.1041833200   -19.7708499867   -16.2708499867   -13.1041833200    -9.1041833200    -7.1041833200    -8.1041833200   -11.2708499867   -14.4375166533   -19.2708499867   -24.7708499867   -28.9375166533   -32.7708499867   -36.2708499867   -40.1041833200   -42.9375166533   -44.2708499867   -46.9375166533   -49.6041833200   -50.9375166533   -53.9375166533   -54.6041833200   -53.2708499867   -50.4375166533   -49.6041833200   -48.2708499867   -48.6041833200   -47.7708499867   -47.9375166533   -46.7708499867   -46.2708499867   -46.2708499867   -47.6041833200   -47.9375166533   -47.1041833200   -45.7708499867   -45.9375166533   -44.2708499867   -43.1041833200   -45.1041833200   -45.9375166533   -44.6041833200   -39.6041833200   -36.2708499867   -32.9375166533   -31.6041833200   -30.9375166533   -31.9375166533   -32.4375166533   -31.9375166533   -30.2708499867   -32.7708499867   -35.7708499867   -40.7708499867   -44.4375166533   -45.9375166533   -46.2708499867   -47.6041833200   -49.1041833200   -49.6041833200   -50.6041833200   -53.4375166533   -55.6041833200   -54.6041833200   -53.7708499867   -50.4375166533   -48.7708499867   -44.1041833200   -41.1041833200   -38.4375166533   -34.4375166533   -31.4375166533   -30.6041833200   -33.6041833200   -37.7708499867   -41.9375166533   -50.4375166533   -60.1041833200   -71.4375166533   -85.9375166533  -105.2708499867  -136.2708499867  -179.7708499867  -216.7708499867  -238.2708499867  -261.1041833200  -297.4375166533  -337.6041833200  -376.2708499867  -421.9375166533  -488.4375166533  -578.4375166533  -704.7708499867  -865.6041833200  -954.9375166533 -1030.9375166533 -1117.1041833200 -1221.2708499867 -1350.1041833200 -1452.2708499867 -1650.4375166533 -1869.2708499867 -2046.4375166533 -2020.1041833200 -1974.4375166533 -2077.7708499867 -2105.1041833200 -2087.1041833200 -2135.6041833200 -2118.1041833200 -2096.9375166533 -1995.7708499867 -1684.9375166533 -1372.1041833200 -1085.2708499867  -917.1041833200  -831.9375166533  -609.1041833200  -388.2708499867  -461.1041833200  -389.9375166533  -105.1041833200   115.8958166800   389.0624833467   684.2291500133   933.3958166800  1090.5624833467  1120.0624833467   938.0624833467   735.2291500133   517.8958166800   447.0624833467   678.2291500133   848.3958166800   869.5624833467  1011.5624833467   911.8958166800   721.2291500133   612.5624833467   487.8958166800   481.3958166800   480.2291500133   459.8958166800   367.2291500133   257.3958166800   301.3958166800   473.8958166800   627.8958166800   668.7291500133   643.0624833467   703.0624833467   715.3958166800   784.5624833467   859.8958166800   878.0624833467   867.2291500133   830.7291500133   805.8958166800   827.8958166800   936.0624833467  1067.8958166800  1099.3958166800  1065.5624833467   991.7291500133   917.7291500133   865.8958166800   844.5624833467   816.5624833467   785.3958166800   788.0624833467   792.8958166800   786.2291500133   773.7291500133   767.8958166800   758.0624833467   761.5624833467   765.8958166800   762.2291500133   767.2291500133   760.7291500133   728.8958166800   691.7291500133   664.3958166800   668.5624833467   691.7291500133   707.2291500133   696.5624833467   668.7291500133   643.5624833467   616.2291500133   581.7291500133   551.8958166800   525.7291500133   496.0624833467   472.0624833467   453.7291500133   438.8958166800   419.2291500133   400.8958166800   376.5624833467   356.3958166800   337.2291500133   324.5624833467   310.0624833467   291.5624833467   267.0624833467   239.5624833467   215.8958166800   197.2291500133   180.2291500133   163.0624833467   147.7291500133   134.2291500133   116.0624833467    91.7291500133    69.7291500133    52.2291500133    38.3958166800    25.8958166800    14.5624833467     3.0624833467    -7.4375166533   -17.1041833200   -28.7708499867   -38.4375166533   -46.4375166533   -55.9375166533   -66.4375166533   -79.1041833200   -84.2708499867   -89.7708499867   -94.9375166533  -102.4375166533  -111.9375166533  -118.2708499867  -125.1041833200  -134.1041833200  -141.2708499867  -142.7708499867  -141.9375166533  -143.9375166533  -145.6041833200  -145.9375166533  -144.6041833200  -141.9375166533  -143.6041833200  -142.6041833200  -140.6041833200  -139.7708499867  -138.1041833200  -142.2708499867  -145.6041833200  -146.7708499867  -147.7708499867  -150.4375166533  -152.1041833200  -155.4375166533  -159.9375166533  -163.6041833200  -165.7708499867  -167.7708499867  -168.9375166533  -174.7708499867  -181.6041833200  -188.4375166533  -195.1041833200  -197.6041833200  -201.4375166533  -205.6041833200  -209.4375166533  -214.2708499867  -218.2708499867  -216.4375166533  -214.9375166533  -214.9375166533  -216.6041833200  -218.9375166533  -221.2708499867  -221.9375166533  -221.7708499867  -220.4375166533  -217.7708499867  -216.4375166533  -215.1041833200  -212.7708499867  -209.2708499867  -204.6041833200  -202.2708499867  -202.1041833200  -199.6041833200  -195.9375166533  -194.1041833200  -193.7708499867  -190.4375166533  -184.6041833200  -180.1041833200  -179.7708499867  -179.2708499867  -178.6041833200  -176.1041833200  -176.9375166533  -180.4375166533  -181.2708499867  -181.1041833200  -182.4375166533  -183.6041833200  -184.4375166533  -182.2708499867  -180.4375166533  -181.1041833200  -182.2708499867  -183.9375166533  -183.7708499867  -183.9375166533  -183.9375166533  -184.2708499867  -180.9375166533  -178.9375166533  -179.9375166533  -180.9375166533  -179.4375166533  -179.9375166533  -182.2708499867  -184.7708499867  -184.7708499867  -183.7708499867  -186.4375166533  -186.9375166533  -184.4375166533  -181.1041833200  -178.7708499867  -177.9375166533  -175.2708499867  -172.1041833200  -168.7708499867  -165.1041833200  -163.7708499867  -161.6041833200  -157.9375166533  -155.4375166533  -153.9375166533  -154.1041833200  -152.4375166533  -149.1041833200  -147.2708499867  -148.1041833200  -149.1041833200  -151.2708499867  -153.4375166533  -151.9375166533  -151.7708499867  -154.6041833200  -156.7708499867  -157.1041833200  -156.2708499867  -154.2708499867  -151.7708499867  -148.4375166533  -143.2708499867  -140.6041833200  -138.4375166533  -135.9375166533  -133.2708499867  -129.9375166533  -129.2708499867  -129.4375166533  -129.1041833200  -125.9375166533  -120.9375166533  -119.2708499867  -118.1041833200  -117.6041833200  -117.7708499867  -117.2708499867  -116.2708499867  -114.9375166533  -114.2708499867  -113.9375166533  -112.2708499867  -109.2708499867  -104.4375166533  -103.4375166533  -101.7708499867   -99.2708499867   -96.7708499867   -92.6041833200   -85.7018385292   -78.7994937383   -71.2304822808   -64.4948041567   -60.0924593658   -55.6901145750   -49.9544364508   -43.0520916600 
    6.0935414999     6.8446757406     7.9291433146     8.1802775554     7.9314117961     8.0158793702     8.6003469442    10.3514811849     7.5181478516     7.8514811849    10.0181478516    13.5181478516    15.5181478516    15.0181478516    14.5181478516    14.8514811849    16.5181478516    17.5181478516    18.1848145183    21.0181478516    23.8514811849    25.8514811849    26.1848145183    22.8514811849    24.0181478516    25.5181478516    24.5181478516    21.1848145183    17.1848145183    14.5181478516    11.8514811849    10.3514811849     9.6848145183     8.5181478516     7.0181478516     3.8514811849     2.5181478516     1.8514811849     1.0181478516     0.8514811849    -1.8151854817    -6.3151854817   -11.1485188151   -15.8151854817   -16.9818521484   -15.8151854817   -14.3151854817   -15.6485188151   -16.9818521484   -18.4818521484   -21.8151854817   -25.6485188151   -29.6485188151   -30.6485188151   -30.9818521484   -28.3151854817   -23.4818521484   -20.1485188151   -15.9818521484   -10.9818521484    -6.3151854817    -3.3151854817    -1.6485188151     1.1848145183     4.5181478516     9.1848145183    16.3514811849    24.5181478516    31.0181478516    34.3514811849    36.6848145183    36.6848145183    34.5181478516    34.0181478516    30.5181478516    27.1848145183    24.8514811849    21.0181478516    17.6848145183    16.1848145183    12.1848145183     6.1848145183     0.1848145183    -4.6485188151   -10.1485188151   -14.6485188151   -15.6485188151   -17.4818521484   -19.1485188151   -19.1485188151   -15.4818521484   -12.8151854817   -13.9818521484   -14.4818521484   -16.1485188151   -19.4818521484   -21.9818521484   -23.4818521484   -23.3151854817   -24.9818521484   -24.4818521484   -24.6485188151   -25.3151854817   -26.1485188151   -26.4818521484   -26.3151854817   -27.3151854817   -28.3151854817   -29.4818521484   -30.6485188151   -26.9818521484   -23.8151854817   -22.1485188151   -19.8151854817   -18.8151854817   -16.8151854817   -14.3151854817   -13.3151854817   -13.9818521484   -15.3151854817   -15.4818521484   -13.3151854817    -9.4818521484    -7.4818521484    -3.8151854817     0.6848145183     2.8514811849     4.6848145183     6.6848145183     9.3514811849    12.1848145183    14.3514811849    14.5181478516    15.1848145183    15.3514811849    19.1848145183    23.1848145183    23.5181478516    20.1848145183    17.5181478516    16.8514811849    16.5181478516    15.3514811849    13.6848145183    15.0181478516    14.3514811849    14.6848145183    17.0181478516    19.8514811849    21.1848145183    22.3514811849    23.1848145183    22.5181478516    20.1848145183    19.3514811849    19.1848145183    15.6848145183    11.0181478516     6.1848145183     4.1848145183     4.3514811849     4.6848145183    -0.1485188151    -8.8151854817   -22.3151854817   -33.1485188151   -41.1485188151   -49.6485188151   -55.9818521484   -62.3151854817   -66.6485188151   -69.9818521484   -73.1485188151   -76.6485188151   -73.8151854817   -71.3151854817   -81.8151854817  -101.3151854817  -125.6485188151  -144.4818521484  -157.4818521484  -174.8151854817  -203.4818521484  -236.4818521484  -288.8151854817  -359.4818521484  -439.1485188151  -531.8151854817  -645.1485188151  -791.3151854817  -946.3151854817 -1049.6485188151 -1133.6485188151 -1242.6485188151 -1311.9818521484 -1356.3151854817 -1352.6485188151 -1391.6485188151 -1563.6485188151 -1812.6485188151 -1942.9818521484 -1908.9818521484 -1786.9818521484 -1617.6485188151 -1475.6485188151 -1309.4818521484 -1114.9818521484 -1048.6485188151  -989.8151854817  -842.4818521484  -675.3151854817  -608.8151854817  -454.8151854817  -289.1485188151  -190.9818521484    84.1848145183   327.0181478516   496.6848145183   503.6848145183   582.1848145183   632.5181478516   717.3514811849   661.1848145183   540.1848145183   512.5181478516   563.0181478516   598.8514811849   770.8514811849   744.3514811849   657.5181478516   719.1848145183   717.1848145183   646.3514811849   446.6848145183   479.6848145183   450.6848145183   402.0181478516   316.6848145183   338.6848145183   583.6848145183   753.8514811849   817.6848145183   885.6848145183   828.1848145183   826.3514811849   978.8514811849  1171.0181478516  1261.0181478516  1354.3514811849  1526.6848145183  1522.1848145183  1492.6848145183  1509.1848145183  1536.8514811849  1600.0181478516  1560.5181478516  1495.8514811849  1429.6848145183  1369.6848145183  1381.5181478516  1384.6848145183  1307.6848145183  1255.0181478516  1249.8514811849  1202.1848145183  1114.0181478516  1095.3514811849  1076.0181478516  1101.0181478516  1130.5181478516  1155.8514811849  1193.6848145183  1234.3514811849  1239.0181478516  1192.1848145183  1124.8514811849  1060.3514811849  1006.1848145183   936.0181478516   876.8514811849   863.8514811849   884.8514811849   862.8514811849   811.5181478516   760.5181478516   694.6848145183   597.5181478516   501.3514811849   403.5181478516   314.1848145183   228.6848145183   154.1848145183    93.5181478516    42.5181478516    -0.6485188151   -30.1485188151   -63.4818521484  -110.9818521484  -159.9818521484  -200.9818521484  -233.8151854817  -253.8151854817  -264.4818521484  -271.6485188151  -276.4818521484  -282.1485188151  -286.4818521484  -293.3151854817  -303.8151854817  -311.6485188151  -313.1485188151  -316.1485188151  -320.8151854817  -330.4818521484  -340.4818521484  -347.4818521484  -353.3151854817  -358.6485188151  -365.4818521484  -369.8151854817  -372.8151854817  -371.1485188151  -368.6485188151  -364.4818521484  -361.6485188151  -357.6485188151  -354.6485188151  -350.8151854817  -349.6485188151  -345.3151854817  -337.9818521484  -330.9818521484  -326.3151854817  -323.1485188151  -318.8151854817  -313.4818521484  -307.1485188151  -300.1485188151  -295.9818521484  -292.4818521484  -286.3151854817  -283.3151854817  -277.3151854817  -272.3151854817  -268.4818521484  -264.8151854817  -260.4818521484  -255.8151854817  -252.4818521484  -248.3151854817  -242.8151854817  -236.9818521484  -232.8151854817  -230.8151854817  -228.8151854817  -225.1485188151  -220.8151854817  -216.1485188151  -215.8151854817  -217.6485188151  -217.1485188151  -214.1485188151  -212.8151854817  -213.6485188151  -213.4818521484  -214.8151854817  -217.8151854817  -219.6485188151  -221.3151854817  -224.1485188151  -224.6485188151  -223.1485188151  -219.6485188151  -215.8151854817  -212.3151854817  -207.6485188151  -203.4818521484  -202.9818521484  -200.6485188151  -196.6485188151  -192.4818521484  -188.8151854817  -186.6485188151  -186.8151854817  -186.3151854817  -181.9818521484  -176.8151854817  -174.1485188151  -174.8151854817  -174.9818521484  -172.8151854817  -169.3151854817  -169.8151854817  -170.8151854817  -171.3151854817  -166.4818521484  -161.4818521484  -156.9818521484  -151.9818521484  -146.6485188151  -143.1485188151  -140.8151854817  -140.6485188151  -141.4818521484  -141.9818521484  -142.6485188151  -142.6485188151  -146.1485188151  -143.4818521484  -136.8151854817  -131.4818521484  -131.3151854817  -131.8151854817  -132.4818521484  -131.4818521484  -130.4818521484  -128.8151854817  -128.9818521484  -130.8151854817  -131.6485188151  -131.1485188151  -131.1485188151  -132.8151854817  -130.3151854817  -130.1485188151  -133.4818521484  -138.9818521484  -144.3151854817  -148.1485188151  -149.6485188151  -148.9818521484  -147.4818521484  -146.6485188151  -146.1485188151  -144.6485188151  -144.6485188151  -143.3151854817  -141.3151854817  -137.9818521484  -135.4818521484  -130.3151854817  -122.6485188151  -113.4818521484  -105.6485188151   -99.8151854817   -94.9818521484   -96.4818521484   -98.8151854817  -100.9818521484  -101.8151854817  -100.4818521484   -97.3151854817   -95.3151854817   -93.4818521484   -89.9818521484   -87.1485188151   -86.8151854817   -90.3151854817   -94.4818521484   -97.8151854817   -98.8151854817   -99.6485188151   -95.6485188151   -92.1485188151   -88.1485188151   -83.9818521484   -80.1485188151   -77.1485188151   -77.1485188151   -76.8151854817   -77.1485188151   -76.9818521484   -74.9818521484   -68.0663197225   -60.6507872965   -53.4019215372   -47.4863891113   -42.2375233520   -38.6553242594   -34.2397918335   -29.8242594075 
   -6.2584734454   -10.3057112357   -14.5196156926   -18.4001868161   -22.2807579397   -25.9946623966   -30.2085668535   -34.4224713104   -38.0891379770   -44.2558046437   -49.9224713104   -56.2558046437   -62.5891379770   -67.0891379770   -72.5891379770   -76.5891379770   -78.4224713104   -80.4224713104   -82.4224713104   -84.4224713104   -87.4224713104   -91.2558046437   -93.2558046437   -95.2558046437   -97.4224713104   -98.4224713104   -99.0891379770   -96.9224713104   -93.9224713104   -93.5891379770   -93.5891379770   -92.9224713104   -90.5891379770   -88.5891379770   -87.4224713104   -87.2558046437   -85.5891379770   -82.2558046437   -80.9224713104   -80.7558046437   -81.5891379770   -81.0891379770   -80.4224713104   -82.7558046437   -87.2558046437   -91.2558046437   -93.5891379770   -95.5891379770   -99.0891379770  -102.2558046437  -105.7558046437  -108.7558046437  -111.4224713104  -114.5891379770  -116.0891379770  -114.9224713104  -111.2558046437  -107.0891379770  -103.4224713104   -97.5891379770   -91.9224713104   -87.5891379770   -85.0891379770   -83.5891379770   -82.0891379770   -80.5891379770   -77.7558046437   -73.9224713104   -69.7558046437   -66.4224713104   -65.2558046437   -66.0891379770   -69.5891379770   -72.5891379770   -75.7558046437   -79.5891379770   -81.7558046437   -80.9224713104   -78.2558046437   -76.9224713104   -75.9224713104   -73.4224713104   -71.0891379770   -68.7558046437   -68.2558046437   -70.0891379770   -70.2558046437   -67.5891379770   -59.4224713104   -52.7558046437   -47.4224713104   -44.7558046437   -43.2558046437   -42.5891379770   -41.9224713104   -40.2558046437   -39.5891379770   -39.5891379770   -41.4224713104   -43.4224713104   -45.7558046437   -46.7558046437   -46.0891379770   -46.0891379770   -49.5891379770   -53.9224713104   -58.0891379770   -59.7558046437   -59.4224713104   -58.9224713104   -60.4224713104   -61.9224713104   -62.0891379770   -61.7558046437   -60.4224713104   -59.7558046437   -56.2558046437   -51.4224713104   -50.9224713104   -51.5891379770   -52.9224713104   -52.2558046437   -49.2558046437   -45.7558046437   -44.2558046437   -45.4224713104   -46.0891379770   -46.5891379770   -46.9224713104   -47.0891379770   -46.4224713104   -45.4224713104   -45.9224713104   -46.7558046437   -44.2558046437   -44.0891379770   -44.5891379770   -48.0891379770   -51.0891379770   -54.7558046437   -58.0891379770   -62.2558046437   -66.7558046437   -69.9224713104   -73.2558046437   -76.0891379770   -78.7558046437   -80.7558046437   -84.2558046437   -86.2558046437   -89.7558046437   -92.9224713104   -95.0891379770   -93.5891379770   -93.4224713104   -96.7558046437  -100.7558046437  -101.0891379770   -96.4224713104   -92.7558046437   -91.9224713104   -95.7558046437  -100.5891379770  -106.0891379770  -112.9224713104  -119.2558046437  -126.4224713104  -129.5891379770  -130.2558046437  -128.7558046437  -129.9224713104  -131.5891379770  -131.5891379770  -133.0891379770  -134.4224713104  -135.5891379770  -132.5891379770  -130.7558046437  -134.2558046437  -143.9224713104  -159.0891379770  -199.2558046437  -254.5891379770  -314.0891379770  -376.4224713104  -450.7558046437  -505.2558046437  -581.0891379770  -707.5891379770  -860.2558046437 -1036.5891379770 -1179.9224713104 -1384.4224713104 -1619.5891379770 -1751.2558046437 -1789.0891379770 -1779.7558046437 -1851.5891379770 -1959.9224713104 -2062.2558046437 -2083.0891379770 -2056.4224713104 -1930.0891379770 -1884.7558046437 -1767.2558046437 -1475.9224713104 -1188.5891379770 -1059.2558046437 -1039.4224713104  -821.0891379770  -570.2558046437  -400.7558046437  -276.5891379770  -105.0891379770    87.2441953563   294.0775286896   551.2441953563   622.0775286896   616.4108620230   804.7441953563   899.7441953563   685.2441953563   544.5775286896   653.7441953563   790.2441953563   794.9108620230   815.4108620230   786.2441953563   724.4108620230   696.2441953563   585.5775286896   533.0775286896   350.0775286896   293.0775286896   255.5775286896   193.7441953563   156.9108620230   199.5775286896   173.7441953563   198.0775286896   396.9108620230   556.4108620230   517.2441953563   497.2441953563   486.4108620230   519.2441953563   705.7441953563   815.0775286896   915.2441953563  1001.4108620230   989.0775286896   930.0775286896   897.9108620230   946.9108620230  1015.7441953563   880.9108620230   754.7441953563   677.7441953563   649.2441953563   644.9108620230   671.4108620230   691.5775286896   656.7441953563   599.5775286896   559.9108620230   550.4108620230   565.9108620230   597.2441953563   655.4108620230   713.2441953563   765.9108620230   860.7441953563   913.4108620230   909.5775286896   894.2441953563   881.4108620230   864.5775286896   834.2441953563   824.7441953563   841.7441953563   852.7441953563   860.5775286896   872.0775286896   852.4108620230   820.5775286896   784.0775286896   752.5775286896   704.4108620230   655.7441953563   625.9108620230   610.0775286896   588.4108620230   563.7441953563   537.7441953563   506.5775286896   469.0775286896   425.5775286896   383.7441953563   346.2441953563   305.2441953563   268.7441953563   239.0775286896   206.4108620230   175.2441953563   143.5775286896   106.0775286896    69.7441953563    35.4108620230     4.2441953563   -25.9224713104   -52.2558046437   -78.4224713104  -102.2558046437  -116.2558046437  -126.0891379770  -135.5891379770  -146.5891379770  -159.4224713104  -171.0891379770  -180.2558046437  -184.5891379770  -187.0891379770  -188.5891379770  -188.9224713104  -187.4224713104  -185.5891379770  -187.7558046437  -185.9224713104  -184.0891379770  -185.7558046437  -189.0891379770  -191.9224713104  -193.5891379770  -195.5891379770  -196.7558046437  -200.4224713104  -206.9224713104  -215.5891379770  -221.0891379770  -226.9224713104  -231.0891379770  -235.7558046437  -236.9224713104  -238.0891379770  -239.4224713104  -241.9224713104  -242.9224713104  -242.0891379770  -241.2558046437  -238.9224713104  -237.0891379770  -230.9224713104  -224.7558046437  -215.9224713104  -209.9224713104  -205.0891379770  -204.4224713104  -204.5891379770  -209.2558046437  -213.7558046437  -219.4224713104  -223.7558046437  -227.2558046437  -227.7558046437  -226.7558046437  -225.0891379770  -224.0891379770  -225.2558046437  -225.5891379770  -223.4224713104  -223.5891379770  -221.7558046437  -216.4224713104  -211.0891379770  -202.9224713104  -197.0891379770  -191.2558046437  -186.4224713104  -179.5891379770  -175.7558046437  -174.5891379770  -172.7558046437  -171.4224713104  -170.2558046437  -170.5891379770  -172.2558046437  -175.0891379770  -175.5891379770  -175.4224713104  -174.2558046437  -175.4224713104  -173.5891379770  -169.5891379770  -165.5891379770  -165.2558046437  -166.2558046437  -166.0891379770  -167.2558046437  -166.4224713104  -166.0891379770  -165.2558046437  -168.2558046437  -167.4224713104  -170.4224713104  -172.5891379770  -174.7558046437  -175.9224713104  -179.2558046437  -181.9224713104  -181.0891379770  -180.0891379770  -179.0891379770  -178.7558046437  -178.0891379770  -179.2558046437  -179.0891379770  -180.2558046437  -177.0891379770  -175.9224713104  -173.9224713104  -173.5891379770  -173.2558046437  -172.5891379770  -170.5891379770  -168.9224713104  -171.7558046437  -172.0891379770  -171.5891379770  -169.9224713104  -167.7558046437  -164.0891379770  -161.9224713104  -159.0891379770  -155.9224713104  -150.5891379770  -144.4224713104  -140.5891379770  -137.2558046437  -133.9224713104  -131.4224713104  -130.4224713104  -128.0891379770  -124.7558046437  -122.7558046437  -121.5891379770  -121.2558046437  -120.7558046437  -120.0891379770  -118.9224713104  -119.9224713104  -122.2558046437  -126.4224713104  -127.7558046437  -129.5891379770  -131.2558046437  -134.0891379770  -135.9224713104  -136.9224713104  -139.7558046437  -139.7558046437  -138.2558046437  -135.5891379770  -133.2558046437  -129.9224713104  -127.0891379770  -126.7558046437  -125.4224713104  -122.2558046437  -119.9224713104  -118.4224713104  -116.5891379770  -113.7558046437  -111.4224713104  -102.2085668535   -93.3279957299   -85.9474246063   -79.7335201494   -74.1862823592   -68.8057112357   -64.5918067788   -59.3779023219 
  -37.3457631649   -37.5693664796   -38.6263031275   -42.1832397755   -46.5735097568   -50.2971130714   -53.5207163860   -57.2443197006   -53.5776530340   -49.2443197006   -45.2443197006   -43.2443197006   -42.2443197006   -44.7443197006   -48.5776530340   -52.4109863673   -56.4109863673   -60.7443197006   -65.4109863673   -66.4109863673   -64.2443197006   -63.7443197006   -62.9109863673   -61.2443197006   -59.0776530340   -57.4109863673   -57.4109863673   -57.7443197006   -58.7443197006   -57.9109863673   -54.2443197006   -49.7443197006   -46.4109863673   -44.4109863673   -43.4109863673   -44.2443197006   -46.0776530340   -48.5776530340   -51.2443197006   -52.2443197006   -55.5776530340   -56.7443197006   -54.7443197006   -54.0776530340   -52.7443197006   -52.4109863673   -50.2443197006   -49.4109863673   -52.2443197006   -53.2443197006   -53.2443197006   -52.5776530340   -52.4109863673   -50.9109863673   -49.9109863673   -50.5776530340   -50.9109863673   -53.4109863673   -56.9109863673   -58.9109863673   -62.0776530340   -63.5776530340   -67.4109863673   -71.2443197006   -72.7443197006   -74.0776530340   -73.5776530340   -74.9109863673   -76.9109863673   -77.5776530340   -80.2443197006   -82.0776530340   -80.2443197006   -77.9109863673   -78.5776530340   -80.5776530340   -80.9109863673   -77.7443197006   -74.9109863673   -75.0776530340   -73.7443197006   -72.9109863673   -70.9109863673   -68.4109863673   -67.2443197006   -66.2443197006   -62.5776530340   -58.7443197006   -58.7443197006   -58.7443197006   -55.2443197006   -52.2443197006   -47.5776530340   -45.9109863673   -45.9109863673   -42.7443197006   -39.0776530340   -36.4109863673   -36.9109863673   -37.9109863673   -37.2443197006   -39.0776530340   -41.9109863673   -45.2443197006   -47.0776530340   -47.4109863673   -47.4109863673   -46.4109863673   -48.2443197006   -51.4109863673   -52.4109863673   -52.4109863673   -52.5776530340   -52.4109863673   -51.9109863673   -50.5776530340   -48.5776530340   -45.0776530340   -40.2443197006   -39.0776530340   -38.0776530340   -36.0776530340   -35.0776530340   -35.9109863673   -36.7443197006   -37.2443197006   -36.4109863673   -35.4109863673   -35.2443197006   -36.7443197006   -38.0776530340   -39.5776530340   -40.5776530340   -41.4109863673   -43.4109863673   -42.2443197006   -42.9109863673   -46.9109863673   -51.9109863673   -54.9109863673   -56.0776530340   -55.7443197006   -56.7443197006   -60.9109863673   -64.7443197006   -64.0776530340   -61.7443197006   -60.7443197006   -62.4109863673   -62.9109863673   -65.5776530340   -67.4109863673   -68.9109863673   -69.5776530340   -67.5776530340   -65.4109863673   -62.7443197006   -61.4109863673   -62.2443197006   -59.9109863673   -57.2443197006   -59.4109863673   -65.9109863673   -73.4109863673   -76.0776530340   -75.4109863673   -70.2443197006   -69.0776530340   -72.5776530340   -73.7443197006   -76.7443197006   -84.0776530340   -94.2443197006  -107.2443197006  -123.0776530340  -142.2443197006  -147.0776530340  -135.5776530340  -120.7443197006  -111.2443197006  -118.9109863673  -141.7443197006  -169.9109863673  -211.9109863673  -255.5776530340  -291.7443197006  -337.9109863673  -370.2443197006  -419.4109863673  -507.5776530340  -646.7443197006  -800.2443197006  -965.0776530340 -1070.5776530340 -1108.5776530340 -1187.9109863673 -1390.5776530340 -1679.7443197006 -1937.4109863673 -1998.5776530340 -2062.2443197006 -1995.2443197006 -1954.7443197006 -1945.0776530340 -1944.9109863673 -1965.0776530340 -1896.9109863673 -1723.4109863673 -1509.9109863673 -1291.0776530340 -1149.7443197006  -984.4109863673  -812.7443197006  -595.2443197006  -500.5776530340  -464.2443197006  -326.7443197006  -245.7443197006  -214.2443197006   -61.9109863673    97.0890136327   273.2556802994   470.7556802994   632.0890136327   765.9223469660   813.5890136327   668.0890136327   418.2556802994   436.4223469660   516.5890136327   632.4223469660   645.0890136327   680.5890136327   723.2556802994   822.2556802994   746.5890136327   547.2556802994   397.9223469660   333.7556802994   247.5890136327   260.4223469660   303.5890136327   503.0890136327   842.7556802994   978.5890136327  1070.0890136327  1221.4223469660  1360.0890136327  1419.7556802994  1386.5890136327  1365.0890136327  1394.5890136327  1556.9223469660  1700.4223469660  1667.9223469660  1614.2556802994  1462.2556802994  1271.4223469660  1113.7556802994   992.4223469660   982.4223469660   990.9223469660   992.5890136327   983.9223469660   912.7556802994   827.9223469660   780.7556802994   775.7556802994   768.0890136327   769.7556802994   826.0890136327   879.2556802994   891.4223469660   917.4223469660   964.9223469660   975.9223469660   936.7556802994   906.4223469660   879.2556802994   852.7556802994   848.9223469660   863.4223469660   858.4223469660   830.9223469660   819.4223469660   809.0890136327   769.5890136327   716.0890136327   685.4223469660   655.2556802994   619.5890136327   572.4223469660   526.4223469660   484.5890136327   444.5890136327   399.9223469660   358.7556802994   316.9223469660   271.0890136327   228.2556802994   184.0890136327   145.7556802994   115.4223469660    89.0890136327    61.0890136327    33.5890136327     3.4223469660   -20.2443197006   -39.0776530340   -60.9109863673   -81.2443197006   -93.0776530340  -102.7443197006  -115.9109863673  -125.4109863673  -131.4109863673  -136.0776530340  -143.5776530340  -150.2443197006  -154.2443197006  -154.2443197006  -153.7443197006  -153.0776530340  -158.0776530340  -165.4109863673  -167.9109863673  -169.5776530340  -172.9109863673  -177.0776530340  -181.9109863673  -186.4109863673  -192.7443197006  -200.5776530340  -209.4109863673  -215.2443197006  -220.0776530340  -224.5776530340  -228.0776530340  -234.4109863673  -238.4109863673  -241.5776530340  -244.2443197006  -246.9109863673  -247.0776530340  -247.9109863673  -245.4109863673  -242.2443197006  -237.5776530340  -233.7443197006  -230.5776530340  -228.9109863673  -226.4109863673  -225.0776530340  -227.2443197006  -225.2443197006  -225.7443197006  -223.2443197006  -219.9109863673  -219.4109863673  -219.7443197006  -219.5776530340  -220.0776530340  -223.0776530340  -228.4109863673  -232.5776530340  -233.9109863673  -234.4109863673  -237.2443197006  -240.4109863673  -240.9109863673  -242.5776530340  -242.5776530340  -244.4109863673  -247.7443197006  -247.0776530340  -245.5776530340  -243.2443197006  -240.7443197006  -239.4109863673  -239.4109863673  -240.2443197006  -241.9109863673  -243.7443197006  -242.7443197006  -238.4109863673  -232.9109863673  -226.9109863673  -222.0776530340  -217.5776530340  -213.2443197006  -210.4109863673  -208.2443197006  -206.7443197006  -206.9109863673  -205.5776530340  -203.4109863673  -199.0776530340  -196.0776530340  -193.5776530340  -191.0776530340  -191.9109863673  -189.5776530340  -188.9109863673  -187.7443197006  -188.2443197006  -187.7443197006  -189.5776530340  -192.5776530340  -194.2443197006  -196.4109863673  -196.7443197006  -196.5776530340  -196.4109863673  -195.5776530340  -195.0776530340  -196.0776530340  -195.9109863673  -199.5776530340  -202.7443197006  -205.0776530340  -205.4109863673  -205.9109863673  -205.4109863673  -203.9109863673  -202.4109863673  -197.9109863673  -194.5776530340  -190.7443197006  -188.5776530340  -185.0776530340  -178.7443197006  -173.7443197006  -170.7443197006  -168.0776530340  -165.0776530340  -162.7443197006  -159.7443197006  -157.4109863673  -154.9109863673  -153.2443197006  -154.7443197006  -155.4109863673  -153.0776530340  -150.0776530340  -146.9109863673  -144.5776530340  -144.2443197006  -142.7443197006  -140.4109863673  -138.4109863673  -135.9109863673  -132.5776530340  -131.5776530340  -130.7443197006  -129.7443197006  -127.5776530340  -123.5776530340  -120.9109863673  -120.2443197006  -121.5776530340  -124.9109863673  -127.7443197006  -131.9109863673  -131.9109863673  -132.0776530340  -132.9109863673  -133.5776530340  -134.0776530340  -133.5776530340  -134.2443197006  -135.5776530340  -135.2443197006  -132.5776530340  -125.5207163860  -118.9637797380  -111.2401764234  -101.5165731088   -91.9596364608   -81.0693664796   -73.6790964983   -65.9554931836 
  -13.5645850013   -14.2199092607   -17.7085668535   -21.0305577796   -25.3525487056   -30.6745396317   -35.4965305578   -39.4851881505   -37.1518548172   -36.4851881505   -35.9851881505   -37.8185214839   -40.8185214839   -44.6518548172   -48.4851881505   -51.9851881505   -52.4851881505   -51.4851881505   -48.4851881505   -45.9851881505   -41.4851881505   -35.4851881505   -31.1518548172   -29.9851881505   -31.1518548172   -29.1518548172   -27.9851881505   -26.8185214839   -27.6518548172   -28.4851881505   -27.1518548172   -22.3185214839   -20.1518548172   -20.6518548172   -20.4851881505   -21.1518548172   -23.8185214839   -27.6518548172   -29.8185214839   -29.6518548172   -29.4851881505   -30.3185214839   -29.6518548172   -28.8185214839   -26.3185214839   -21.6518548172   -18.6518548172   -20.6518548172   -22.9851881505   -25.4851881505   -27.3185214839   -26.9851881505   -25.9851881505   -25.3185214839   -23.9851881505   -20.9851881505   -17.1518548172   -15.9851881505   -18.1518548172   -19.8185214839   -17.4851881505   -19.4851881505   -21.4851881505   -21.4851881505   -22.1518548172   -22.9851881505   -21.8185214839   -23.1518548172   -24.9851881505   -24.8185214839   -25.3185214839   -27.6518548172   -30.9851881505   -33.8185214839   -35.1518548172   -37.1518548172   -43.1518548172   -45.9851881505   -49.9851881505   -54.6518548172   -58.3185214839   -59.9851881505   -62.4851881505   -63.9851881505   -65.6518548172   -67.8185214839   -69.1518548172   -68.6518548172   -68.4851881505   -67.9851881505   -65.6518548172   -61.9851881505   -59.1518548172   -56.9851881505   -54.4851881505   -50.3185214839   -46.3185214839   -43.6518548172   -43.9851881505   -43.4851881505   -41.1518548172   -37.3185214839   -34.4851881505   -33.9851881505   -35.1518548172   -36.8185214839   -39.1518548172   -43.1518548172   -46.1518548172   -47.6518548172   -50.3185214839   -51.9851881505   -54.8185214839   -55.6518548172   -53.4851881505   -51.9851881505   -54.4851881505   -56.4851881505   -61.3185214839   -65.9851881505   -67.1518548172   -63.6518548172   -58.6518548172   -52.3185214839   -46.8185214839   -42.6518548172   -37.1518548172   -34.9851881505   -31.9851881505   -31.4851881505   -31.8185214839   -30.8185214839   -25.9851881505   -27.9851881505   -26.1518548172   -19.8185214839   -15.1518548172   -15.9851881505   -18.9851881505   -24.9851881505   -28.3185214839   -29.1518548172   -26.6518548172   -22.8185214839   -18.9851881505   -13.6518548172    -9.3185214839    -8.9851881505   -11.6518548172   -11.8185214839   -11.9851881505   -15.4851881505   -19.1518548172   -20.1518548172   -19.1518548172   -17.4851881505   -18.8185214839   -24.3185214839   -32.9851881505   -39.9851881505   -43.6518548172   -48.1518548172   -53.8185214839   -59.3185214839   -61.9851881505   -59.8185214839   -56.8185214839   -58.6518548172   -62.3185214839   -66.3185214839   -71.1518548172   -73.1518548172   -76.9851881505   -83.4851881505   -81.4851881505   -81.4851881505   -91.4851881505  -109.3185214839  -135.1518548172  -156.8185214839  -175.3185214839  -193.3185214839  -236.8185214839  -272.1518548172  -324.8185214839  -418.4851881505  -521.3185214839  -635.9851881505  -777.3185214839  -961.6518548172 -1089.4851881505 -1135.6518548172 -1145.4851881505 -1245.4851881505 -1452.3185214839 -1673.4851881505 -1882.9851881505 -2146.9851881505 -2227.6518548172 -2188.4851881505 -2205.3185214839 -2153.4851881505 -1910.4851881505 -1668.1518548172 -1599.8185214839 -1457.1518548172 -1427.8185214839 -1271.1518548172 -1114.9851881505  -853.4851881505  -625.4851881505  -456.4851881505  -254.1518548172   206.3481451828   510.3481451828   626.6814785161   738.6814785161   738.8481451828   718.8481451828   862.5148118495  1142.5148118495  1290.3481451828  1316.3481451828  1096.0148118495   862.3481451828   594.0148118495   601.1814785161   777.6814785161   836.6814785161   555.6814785161   315.6814785161   228.6814785161   288.1814785161   416.8481451828   400.1814785161   132.8481451828    -4.3185214839     0.0148118495   163.1814785161   350.1814785161   493.5148118495   731.5148118495   904.1814785161   969.6814785161  1088.6814785161  1246.0148118495  1370.8481451828  1391.8481451828  1351.6814785161  1346.6814785161  1346.3481451828  1442.3481451828  1464.0148118495  1423.8481451828  1373.1814785161  1353.5148118495  1370.6814785161  1245.0148118495  1126.8481451828  1023.0148118495   957.8481451828   990.3481451828  1003.5148118495  1033.1814785161  1056.0148118495  1064.8481451828  1050.5148118495  1016.6814785161   983.5148118495   983.8481451828  1007.0148118495  1004.5148118495  1011.1814785161  1098.8481451828  1111.6814785161  1108.6814785161  1079.8481451828  1040.0148118495  1018.8481451828   993.5148118495   960.3481451828   912.6814785161   865.0148118495   831.8481451828   802.1814785161   758.8481451828   714.1814785161   672.3481451828   607.8481451828   534.6814785161   468.1814785161   410.5148118495   351.0148118495   292.6814785161   224.1814785161   162.0148118495   106.5148118495    58.6814785161    10.6814785161   -32.8185214839   -75.3185214839  -113.4851881505  -153.4851881505  -190.8185214839  -224.8185214839  -258.9851881505  -293.4851881505  -326.6518548172  -355.1518548172  -377.8185214839  -400.1518548172  -426.8185214839  -450.6518548172  -474.9851881505  -497.8185214839  -520.9851881505  -535.8185214839  -545.6518548172  -554.3185214839  -563.3185214839  -568.9851881505  -567.9851881505  -568.1518548172  -568.4851881505  -567.3185214839  -564.3185214839  -561.9851881505  -558.1518548172  -554.6518548172  -550.3185214839  -546.3185214839  -537.4851881505  -529.3185214839  -526.9851881505  -520.6518548172  -510.6518548172  -500.4851881505  -491.4851881505  -481.6518548172  -470.4851881505  -460.6518548172  -450.8185214839  -441.9851881505  -434.4851881505  -427.8185214839  -418.6518548172  -407.8185214839  -399.3185214839  -392.8185214839  -384.4851881505  -376.1518548172  -367.8185214839  -359.8185214839  -353.8185214839  -349.8185214839  -347.6518548172  -344.6518548172  -342.3185214839  -339.9851881505  -334.6518548172  -328.4851881505  -325.6518548172  -324.1518548172  -323.3185214839  -320.4851881505  -314.4851881505  -310.1518548172  -305.9851881505  -303.9851881505  -303.3185214839  -300.9851881505  -297.8185214839  -290.4851881505  -284.9851881505  -280.6518548172  -278.9851881505  -275.9851881505  -270.1518548172  -262.8185214839  -254.6518548172  -249.1518548172  -243.6518548172  -240.8185214839  -238.8185214839  -234.9851881505  -230.1518548172  -224.3185214839  -219.8185214839  -220.1518548172  -216.9851881505  -209.9851881505  -202.3185214839  -195.1518548172  -190.1518548172  -188.1518548172  -185.9851881505  -180.9851881505  -179.3185214839  -177.9851881505  -172.4851881505  -167.9851881505  -164.1518548172  -162.6518548172  -159.9851881505  -157.6518548172  -155.8185214839  -153.9851881505  -154.9851881505  -157.1518548172  -157.4851881505  -155.9851881505  -154.8185214839  -154.9851881505  -155.1518548172  -151.4851881505  -151.4851881505  -147.9851881505  -144.4851881505  -139.8185214839  -137.1518548172  -133.6518548172  -131.9851881505  -131.9851881505  -128.4851881505  -124.6518548172  -121.8185214839  -120.1518548172  -118.9851881505  -119.1518548172  -117.9851881505  -118.8185214839  -118.4851881505  -120.4851881505  -121.8185214839  -121.4851881505  -117.6518548172  -114.4851881505  -111.4851881505  -108.6518548172  -108.1518548172  -104.9851881505  -102.1518548172  -100.4851881505  -100.3185214839   -98.1518548172   -97.6518548172   -94.9851881505   -94.6518548172   -94.9851881505   -96.4851881505   -96.9851881505   -95.9851881505   -96.6518548172   -97.1518548172   -99.3185214839  -100.1518548172  -102.4851881505  -104.6518548172  -104.3185214839  -101.6518548172   -99.1518548172   -93.6518548172   -90.3185214839   -86.4851881505   -83.9851881505   -79.8185214839   -78.6518548172   -79.9851881505   -80.6518548172   -82.3185214839   -79.8185214839   -76.6518548172   -72.3185214839   -66.6631972245   -61.3412062984   -56.8525487056   -52.8638911129   -50.5419001868   -48.0532425941   -44.5645850013   -40.2425940753 
    8.6609287430     6.8454763811     7.0300240192     9.0479049907    12.0657859621    14.0836669335    13.2682145717    13.2860955431    11.6194288764     9.1194288764     7.7860955431     6.4527622098     6.1194288764     5.7860955431     5.4527622098     3.4527622098     1.6194288764     0.6194288764    -0.5472377902    -2.2139044569    -4.0472377902    -6.3805711236    -5.8805711236    -7.0472377902    -8.7139044569    -8.8805711236    -8.8805711236    -7.8805711236    -6.0472377902    -4.5472377902    -6.5472377902    -6.3805711236    -2.5472377902     0.2860955431     1.7860955431     1.2860955431    -2.2139044569    -3.2139044569    -2.8805711236    -1.2139044569     1.6194288764     2.7860955431     5.1194288764     6.1194288764     6.4527622098     5.7860955431     6.6194288764     8.6194288764    10.1194288764    13.4527622098    17.6194288764    20.4527622098    25.9527622098    30.7860955431    33.6194288764    35.7860955431    36.2860955431    36.2860955431    36.9527622098    38.4527622098    38.1194288764    37.4527622098    38.2860955431    37.4527622098    36.2860955431    34.9527622098    34.9527622098    37.1194288764    38.4527622098    37.2860955431    38.1194288764    36.2860955431    35.6194288764    37.6194288764    38.6194288764    38.1194288764    36.2860955431    34.6194288764    32.7860955431    30.6194288764    28.6194288764    27.2860955431    22.6194288764    17.4527622098    13.4527622098    11.1194288764     5.4527622098     4.7860955431     4.6194288764     1.1194288764    -3.3805711236    -6.5472377902    -7.3805711236    -5.7139044569    -3.2139044569    -3.2139044569    -3.2139044569    -4.2139044569    -2.5472377902    -0.7139044569    -1.5472377902    -2.0472377902    -0.8805711236    -0.3805711236    -4.0472377902    -6.5472377902    -8.0472377902   -10.2139044569   -10.3805711236   -10.0472377902   -13.0472377902   -13.7139044569   -12.8805711236   -12.0472377902   -11.7139044569   -13.0472377902   -13.0472377902   -12.3805711236   -11.0472377902   -10.7139044569    -9.0472377902    -7.7139044569    -8.0472377902    -6.8805711236    -6.2139044569    -8.5472377902    -7.2139044569    -6.0472377902    -7.7139044569    -8.2139044569   -10.5472377902   -11.0472377902   -10.5472377902   -10.0472377902   -10.5472377902   -13.5472377902   -14.8805711236   -14.0472377902   -11.2139044569   -10.3805711236    -9.0472377902    -7.5472377902    -6.2139044569    -6.0472377902    -4.2139044569    -2.0472377902    -1.2139044569    -1.3805711236    -2.5472377902    -4.2139044569    -7.5472377902   -11.3805711236   -16.7139044569   -21.8805711236   -24.7139044569   -25.7139044569   -26.0472377902   -26.7139044569   -26.8805711236   -27.2139044569   -30.2139044569   -36.2139044569   -43.8805711236   -48.2139044569   -51.3805711236   -52.3805711236   -51.8805711236   -50.2139044569   -43.8805711236   -38.2139044569   -39.3805711236   -45.0472377902   -56.8805711236   -72.8805711236   -94.2139044569  -108.7139044569  -114.0472377902  -114.2139044569  -115.2139044569  -123.3805711236  -139.3805711236  -171.0472377902  -227.0472377902  -288.8805711236  -361.0472377902  -478.8805711236  -568.7139044569  -663.2139044569  -836.8805711236 -1077.5472377902 -1281.7139044569 -1362.7139044569 -1536.5472377902 -1815.5472377902 -2158.3805711236 -2444.0472377902 -2481.2139044569 -2476.2139044569 -2553.8805711236 -2443.2139044569 -2258.3805711236 -2116.7139044569 -1906.2139044569 -1743.0472377902 -1510.2139044569 -1260.0472377902  -944.0472377902  -636.0472377902  -420.2139044569  -293.5472377902  -158.3805711236   206.7860955431   473.1194288764   653.2860955431   782.6194288764   888.7860955431   859.7860955431   917.6194288764   964.9527622098  1067.7860955431  1035.4527622098   889.9527622098   698.2860955431   515.2860955431   518.4527622098   697.2860955431   870.2860955431   843.9527622098   752.9527622098   656.7860955431   830.7860955431   891.6194288764   918.1194288764   764.6194288764   537.4527622098   303.1194288764   253.9527622098   545.4527622098   856.6194288764  1075.1194288764  1212.6194288764  1258.9527622098  1386.2860955431  1475.6194288764  1463.1194288764  1492.7860955431  1403.2860955431  1246.9527622098  1182.1194288764  1329.7860955431  1440.1194288764  1576.7860955431  1674.7860955431  1565.2860955431  1389.2860955431  1200.4527622098  1080.7860955431  1061.4527622098  1036.6194288764   958.9527622098   918.2860955431   899.7860955431   906.1194288764   913.2860955431   925.1194288764   930.6194288764   963.7860955431   961.9527622098   968.6194288764  1020.2860955431  1077.1194288764  1101.2860955431  1126.6194288764  1145.6194288764  1145.7860955431  1146.1194288764  1120.9527622098  1102.9527622098  1067.2860955431  1051.1194288764  1041.7860955431  1005.9527622098   965.9527622098   935.9527622098   900.4527622098   843.4527622098   770.1194288764   698.9527622098   620.4527622098   552.1194288764   490.9527622098   432.2860955431   380.9527622098   323.2860955431   264.6194288764   202.2860955431   135.9527622098    69.4527622098     9.7860955431   -44.5472377902  -102.0472377902  -153.7139044569  -200.3805711236  -239.7139044569  -271.7139044569  -303.3805711236  -335.2139044569  -362.3805711236  -384.2139044569  -412.2139044569  -437.0472377902  -455.7139044569  -471.7139044569  -488.0472377902  -506.8805711236  -526.3805711236  -543.0472377902  -554.3805711236  -564.3805711236  -570.7139044569  -574.0472377902  -575.3805711236  -574.8805711236  -573.2139044569  -571.7139044569  -565.0472377902  -560.7139044569  -554.2139044569  -547.8805711236  -538.5472377902  -529.5472377902  -522.5472377902  -514.2139044569  -504.7139044569  -495.5472377902  -488.2139044569  -480.8805711236  -472.5472377902  -465.0472377902  -458.0472377902  -450.3805711236  -444.8805711236  -436.8805711236  -429.2139044569  -418.2139044569  -409.8805711236  -403.3805711236  -393.0472377902  -384.7139044569  -376.8805711236  -368.3805711236  -362.8805711236  -358.8805711236  -355.3805711236  -350.3805711236  -346.8805711236  -344.0472377902  -340.3805711236  -337.0472377902  -335.3805711236  -337.7139044569  -339.0472377902  -338.5472377902  -336.0472377902  -330.7139044569  -327.0472377902  -325.0472377902  -325.5472377902  -321.7139044569  -317.0472377902  -315.2139044569  -312.3805711236  -309.0472377902  -303.2139044569  -298.5472377902  -295.5472377902  -293.0472377902  -288.3805711236  -280.3805711236  -274.3805711236  -271.7139044569  -268.2139044569  -262.5472377902  -255.0472377902  -252.5472377902  -250.5472377902  -248.2139044569  -244.3805711236  -241.0472377902  -239.3805711236  -237.2139044569  -235.3805711236  -228.8805711236  -223.3805711236  -221.0472377902  -219.7139044569  -215.5472377902  -213.5472377902  -208.5472377902  -201.8805711236  -198.2139044569  -197.7139044569  -193.7139044569  -189.8805711236  -185.0472377902  -181.2139044569  -177.8805711236  -173.8805711236  -171.5472377902  -169.2139044569  -166.8805711236  -165.8805711236  -165.8805711236  -161.7139044569  -161.7139044569  -162.8805711236  -161.3805711236  -158.3805711236  -156.5472377902  -154.3805711236  -153.5472377902  -152.7139044569  -149.3805711236  -144.8805711236  -140.8805711236  -137.0472377902  -133.2139044569  -126.5472377902  -120.2139044569  -114.5472377902  -111.0472377902  -106.8805711236  -101.3805711236   -96.3805711236   -89.0472377902   -84.5472377902   -80.2139044569   -76.3805711236   -74.2139044569   -72.0472377902   -69.5472377902   -67.2139044569   -65.7139044569   -64.7139044569   -65.5472377902   -66.5472377902   -64.2139044569   -60.7139044569   -56.7139044569   -51.7139044569   -48.8805711236   -45.5472377902   -42.0472377902   -35.7139044569   -29.8805711236   -24.8805711236   -21.2139044569   -17.2139044569   -12.7139044569    -9.7139044569    -5.2139044569    -0.0472377902     2.6194288764     5.7860955431    10.7860955431    14.9527622098    17.2860955431    22.2860955431    29.4527622098    33.4527622098    33.9527622098    32.6194288764    34.2860955431    32.9348812383    31.9170002669    31.8991192954    31.7145716573    30.5300240192    30.8454763811    29.6609287430    25.9763811049 
  -10.2688817721   -12.2061649319   -15.9767814251   -19.5807312517   -22.5180144115   -23.9552975714   -24.8925807313   -24.4965305578   -24.4965305578   -24.8298638911   -24.6631972245   -23.4965305578   -21.3298638911   -19.6631972245   -18.9965305578   -19.8298638911   -20.1631972245   -17.9965305578   -12.4965305578    -7.8298638911    -5.8298638911    -4.3298638911    -1.6631972245     0.0034694422     0.5034694422     0.5034694422     1.6701361089     3.8368027755     6.3368027755     8.6701361089     9.5034694422    10.5034694422    12.3368027755    11.3368027755     8.0034694422     5.0034694422     2.8368027755     1.5034694422     0.6701361089    -0.8298638911    -2.8298638911    -1.9965305578     1.8368027755     4.8368027755     6.6701361089     5.6701361089     5.3368027755     6.1701361089     6.5034694422    10.1701361089    13.5034694422    14.6701361089    14.1701361089    12.8368027755     9.6701361089    11.0034694422    13.5034694422    14.5034694422    11.5034694422     7.1701361089     2.3368027755    -0.9965305578    -2.4965305578    -4.4965305578    -5.6631972245   -10.3298638911   -14.1631972245   -17.1631972245   -14.9965305578   -12.3298638911   -11.4965305578   -15.1631972245   -17.1631972245   -18.6631972245   -19.4965305578   -20.8298638911   -20.6631972245   -17.4965305578   -16.1631972245   -14.1631972245   -11.9965305578    -7.4965305578    -2.6631972245     3.1701361089     5.8368027755     8.0034694422    13.3368027755    18.6701361089    20.6701361089    20.1701361089    20.3368027755    21.1701361089    22.5034694422    21.6701361089    22.3368027755    20.3368027755    18.0034694422    18.1701361089    18.6701361089    19.6701361089    20.6701361089    22.8368027755    23.8368027755    25.8368027755    29.3368027755    34.0034694422    38.5034694422    41.6701361089    43.1701361089    43.5034694422    44.0034694422    44.6701361089    46.0034694422    43.3368027755    40.3368027755    37.8368027755    35.1701361089    32.0034694422    28.1701361089    23.0034694422    16.6701361089    13.3368027755    11.6701361089    11.6701361089    11.1701361089    13.0034694422    13.5034694422    14.0034694422    13.3368027755    15.0034694422    16.5034694422    17.6701361089    17.8368027755    16.8368027755    17.5034694422    19.3368027755    20.0034694422    16.5034694422    10.6701361089     7.6701361089     6.1701361089     3.8368027755     2.3368027755     1.5034694422     0.0034694422    -8.8298638911   -19.9965305578   -26.3298638911   -32.3298638911   -49.8298638911   -65.6631972245   -78.1631972245   -99.4965305578  -141.4965305578  -181.3298638911  -213.9965305578  -267.8298638911  -332.1631972245  -429.3298638911  -533.4965305578  -665.6631972245  -798.1631972245  -905.3298638911  -948.1631972245 -1070.4965305578 -1177.4965305578 -1250.3298638911 -1380.6631972245 -1501.1631972245 -1489.3298638911 -1559.6631972245 -1712.3298638911 -1733.9965305578 -1671.1631972245 -1608.6631972245 -1435.6631972245 -1195.6631972245 -1057.1631972245  -951.9965305578  -807.4965305578  -545.3298638911  -301.4965305578  -166.6631972245  -161.9965305578  -172.9965305578  -275.9965305578   -82.8298638911   269.5034694422   382.1701361089   417.6701361089   577.8368027755   615.8368027755   563.3368027755   680.1701361089   826.8368027755   851.6701361089   778.6701361089   538.8368027755   252.6701361089   382.8368027755   759.8368027755  1021.1701361089   898.6701361089   823.5034694422   865.6701361089   927.0034694422   830.6701361089   654.8368027755   624.5034694422   562.6701361089   390.8368027755   302.0034694422   381.6701361089   625.6701361089   907.6701361089   899.5034694422   747.0034694422   735.1701361089   906.6701361089   910.0034694422   928.5034694422   843.5034694422   841.8368027755   867.1701361089   876.0034694422   949.6701361089  1128.8368027755  1197.1701361089  1121.6701361089  1058.1701361089  1035.3368027755  1077.5034694422  1044.3368027755   983.0034694422   942.3368027755   941.1701361089   930.6701361089   977.0034694422  1004.0034694422  1126.1701361089  1175.5034694422  1122.0034694422  1063.5034694422  1047.8368027755  1056.6701361089  1030.3368027755  1019.0034694422  1036.8368027755  1048.3368027755  1064.1701361089  1058.8368027755  1036.6701361089  1008.3368027755  1016.8368027755  1025.0034694422  1001.5034694422   973.1701361089   948.5034694422   906.3368027755   859.1701361089   815.1701361089   803.5034694422   815.0034694422   788.1701361089   751.3368027755   694.8368027755   618.0034694422   546.8368027755   484.3368027755   410.0034694422   331.1701361089   257.0034694422   181.3368027755   108.3368027755    40.5034694422   -26.9965305578   -84.9965305578  -136.8298638911  -188.6631972245  -238.1631972245  -277.4965305578  -315.3298638911  -344.8298638911  -371.4965305578  -394.9965305578  -411.8298638911  -424.9965305578  -429.8298638911  -430.3298638911  -427.1631972245  -421.8298638911  -409.9965305578  -402.3298638911  -393.6631972245  -383.6631972245  -376.3298638911  -373.4965305578  -369.8298638911  -365.1631972245  -358.4965305578  -349.6631972245  -342.9965305578  -332.9965305578  -328.3298638911  -323.8298638911  -321.9965305578  -318.6631972245  -318.9965305578  -314.3298638911  -308.3298638911  -301.8298638911  -291.4965305578  -281.1631972245  -271.6631972245  -264.1631972245  -255.1631972245  -249.6631972245  -242.1631972245  -233.1631972245  -222.3298638911  -212.3298638911  -204.6631972245  -198.4965305578  -193.4965305578  -188.3298638911  -183.8298638911  -176.8298638911  -171.4965305578  -170.1631972245  -173.4965305578  -171.4965305578  -167.3298638911  -157.8298638911  -147.3298638911  -140.6631972245  -136.9965305578  -133.9965305578  -128.1631972245  -122.3298638911  -114.8298638911  -112.4965305578  -111.3298638911  -113.6631972245  -115.9965305578  -112.9965305578  -107.4965305578  -107.9965305578  -111.6631972245  -117.9965305578  -124.4965305578  -130.6631972245  -132.4965305578  -132.9965305578  -133.3298638911  -134.9965305578  -137.1631972245  -134.8298638911  -131.3298638911  -126.6631972245  -121.9965305578  -116.9965305578  -110.6631972245  -101.1631972245   -92.1631972245   -88.6631972245   -87.3298638911   -84.8298638911   -84.4965305578   -84.3298638911   -83.3298638911   -79.3298638911   -75.4965305578   -73.6631972245   -71.6631972245   -70.4965305578   -69.8298638911   -69.4965305578   -68.3298638911   -70.6631972245   -74.9965305578   -74.9965305578   -75.4965305578   -73.4965305578   -70.6631972245   -69.3298638911   -69.3298638911   -69.3298638911   -67.6631972245   -66.1631972245   -64.8298638911   -64.8298638911   -63.8298638911   -63.8298638911   -64.1631972245   -63.8298638911   -61.1631972245   -56.1631972245   -50.4965305578   -45.9965305578   -43.9965305578   -38.8298638911   -34.3298638911   -33.1631972245   -32.4965305578   -31.3298638911   -31.8298638911   -29.8298638911   -25.6631972245   -21.3298638911   -16.6631972245   -14.6631972245   -13.8298638911   -13.8298638911   -13.8298638911   -14.6631972245   -13.6631972245   -14.9965305578   -13.6631972245   -11.1631972245    -8.4965305578    -5.1631972245    -0.8298638911     3.6701361089     4.8368027755     5.5034694422     5.6701361089     7.1701361089    10.0034694422    12.8368027755    16.1701361089    16.8368027755    17.5034694422    20.3368027755    21.3368027755    23.3368027755    24.1701361089    25.6701361089    27.0034694422    26.3368027755    24.6701361089    23.8368027755    26.1701361089    31.6701361089    37.1701361089    39.8368027755    42.6701361089    47.6701361089    52.3368027755    55.6701361089    56.0034694422    53.6701361089    51.8368027755    50.5034694422    50.5034694422    49.5034694422    48.6701361089    48.1701361089    46.5034694422    44.3368027755    42.1701361089    40.3368027755    38.5034694422    38.1701361089    38.0034694422    35.8368027755    37.5034694422    41.1701361089    44.8368027755    49.1701361089    50.3368027755    51.5034694422    53.8368027755    55.3368027755    53.4407526021    49.5447024286    45.9819855885    44.0859354150    41.1898852415    37.2938350681    32.7311182279    28.8350680544 
  -10.5511895215   -11.7050253943   -13.5255279337   -17.1793638065   -19.3331996792   -19.9870355520   -19.6408714247   -20.6280406308   -21.2947072975   -26.6280406308   -28.4613739642   -30.4613739642   -30.2947072975   -30.9613739642   -28.9613739642   -26.7947072975   -25.9613739642   -23.7947072975   -22.2947072975   -21.1280406308   -22.6280406308   -23.2947072975   -25.1280406308   -26.4613739642   -26.2947072975   -20.6280406308   -17.7947072975   -13.7947072975   -14.2947072975   -19.9613739642   -28.4613739642   -34.6280406308   -36.4613739642   -41.7947072975   -44.9613739642   -45.6280406308   -44.7947072975   -45.2947072975   -44.6280406308   -42.7947072975   -41.2947072975   -42.1280406308   -41.1280406308   -40.9613739642   -40.1280406308   -34.9613739642   -28.1280406308   -24.1280406308   -25.9613739642   -25.1280406308   -23.9613739642   -22.4613739642   -19.4613739642   -17.6280406308   -16.2947072975   -15.6280406308   -13.4613739642    -9.4613739642    -7.2947072975    -7.2947072975    -4.7947072975    -3.2947072975    -0.7947072975    -0.7947072975     3.0386260358     7.7052927025    11.0386260358    12.7052927025    11.8719593692    10.2052927025     8.0386260358     9.2052927025    11.7052927025    10.2052927025     8.2052927025     5.7052927025     3.2052927025     2.0386260358     0.2052927025     0.7052927025    -1.7947072975    -3.2947072975    -4.7947072975    -5.7947072975    -7.6280406308    -6.6280406308    -2.7947072975    -2.1280406308    -4.6280406308    -5.4613739642    -3.4613739642    -0.1280406308     3.3719593692     6.5386260358     6.7052927025     6.2052927025     8.5386260358     8.2052927025     7.3719593692     5.0386260358     5.0386260358     5.2052927025     3.0386260358     1.8719593692    -1.1280406308    -3.9613739642    -7.9613739642   -10.2947072975   -15.2947072975   -20.2947072975   -19.9613739642   -19.2947072975   -18.7947072975   -18.7947072975   -15.1280406308    -9.7947072975    -5.9613739642    -3.7947072975    -2.9613739642    -4.9613739642    -5.7947072975    -5.6280406308    -4.1280406308    -3.7947072975    -3.2947072975    -6.2947072975    -8.2947072975    -5.6280406308    -4.6280406308    -7.9613739642   -16.6280406308   -25.7947072975   -34.1280406308   -41.1280406308   -47.9613739642   -53.6280406308   -55.2947072975   -57.4613739642   -59.4613739642   -56.1280406308   -52.7947072975   -48.9613739642   -49.2947072975   -54.2947072975   -60.4613739642   -60.9613739642   -53.9613739642   -58.6280406308   -76.7947072975  -109.7947072975  -143.6280406308  -160.1280406308  -169.4613739642  -191.6280406308  -243.7947072975  -308.1280406308  -364.9613739642  -422.9613739642  -475.2947072975  -573.6280406308  -671.9613739642  -753.2947072975  -856.4613739642  -920.2947072975  -983.4613739642 -1034.1280406308 -1062.4613739642 -1157.7947072975 -1285.9613739642 -1301.7947072975 -1358.6280406308 -1528.2947072975 -1529.2947072975 -1388.1280406308 -1273.2947072975 -1203.7947072975 -1262.1280406308 -1178.7947072975  -984.7947072975  -839.1280406308  -808.7947072975  -802.9613739642  -771.7947072975  -786.4613739642  -623.7947072975  -448.2947072975  -257.2947072975   -15.1280406308   114.8719593692   108.5386260358   146.5386260358   336.2052927025   661.3719593692   772.2052927025   646.0386260358   527.0386260358   522.7052927025   503.7052927025   442.8719593692   722.2052927025   893.8719593692   808.0386260358   610.0386260358   542.8719593692   461.0386260358   407.8719593692   361.5386260358   320.2052927025   177.8719593692   153.3719593692   254.3719593692   402.5386260358   560.0386260358   750.8719593692   959.2052927025   922.2052927025   848.0386260358   856.0386260358  1022.7052927025  1185.5386260358  1302.7052927025  1388.8719593692  1450.0386260358  1415.2052927025  1446.5386260358  1384.5386260358  1329.8719593692  1263.0386260358  1234.0386260358  1184.7052927025  1145.0386260358  1122.7052927025  1093.0386260358  1122.7052927025  1135.2052927025  1095.5386260358  1053.3719593692  1012.8719593692   939.0386260358   888.0386260358   884.2052927025   916.8719593692   967.5386260358   950.5386260358   914.7052927025   949.5386260358   954.3719593692   947.5386260358   948.8719593692   945.0386260358   950.7052927025   950.5386260358   957.5386260358   965.3719593692   999.8719593692  1032.3719593692  1039.5386260358  1041.3719593692  1021.7052927025  1049.8719593692  1062.7052927025  1021.2052927025   970.7052927025   909.8719593692   833.5386260358   766.7052927025   708.8719593692   645.0386260358   568.3719593692   483.5386260358   395.3719593692   314.2052927025   236.5386260358   154.3719593692    82.8719593692     9.2052927025   -68.6280406308  -140.7947072975  -211.1280406308  -280.9613739642  -345.1280406308  -410.9613739642  -473.9613739642  -534.7947072975  -588.6280406308  -635.2947072975  -677.4613739642  -715.7947072975  -754.2947072975  -787.4613739642  -814.2947072975  -836.2947072975  -853.7947072975  -864.7947072975  -869.6280406308  -868.6280406308  -866.2947072975  -861.7947072975  -852.2947072975  -838.1280406308  -822.1280406308  -807.7947072975  -790.7947072975  -774.2947072975  -754.6280406308  -732.9613739642  -712.1280406308  -694.4613739642  -677.4613739642  -662.9613739642  -649.2947072975  -634.4613739642  -618.9613739642  -601.2947072975  -581.7947072975  -564.2947072975  -550.1280406308  -536.4613739642  -525.2947072975  -511.7947072975  -497.2947072975  -485.2947072975  -473.9613739642  -462.7947072975  -449.7947072975  -435.9613739642  -420.9613739642  -406.7947072975  -395.9613739642  -387.4613739642  -380.9613739642  -375.1280406308  -364.7947072975  -353.2947072975  -338.9613739642  -328.4613739642  -319.6280406308  -310.6280406308  -304.6280406308  -298.4613739642  -292.9613739642  -286.1280406308  -278.1280406308  -272.1280406308  -265.7947072975  -259.9613739642  -253.4613739642  -246.1280406308  -241.7947072975  -239.2947072975  -239.1280406308  -236.6280406308  -233.4613739642  -225.7947072975  -217.6280406308  -205.7947072975  -196.9613739642  -189.4613739642  -185.9613739642  -179.9613739642  -172.1280406308  -163.7947072975  -157.6280406308  -152.7947072975  -149.2947072975  -145.7947072975  -140.9613739642  -134.1280406308  -126.7947072975  -125.9613739642  -123.4613739642  -124.4613739642  -123.1280406308  -121.9613739642  -119.6280406308  -116.2947072975  -113.7947072975  -109.2947072975  -105.1280406308  -102.1280406308   -98.4613739642   -93.2947072975   -89.4613739642   -88.9613739642   -88.6280406308   -88.1280406308   -88.6280406308   -88.6280406308   -89.6280406308   -91.2947072975   -91.2947072975   -93.1280406308   -94.9613739642   -99.7947072975  -104.1280406308  -104.9613739642  -105.6280406308  -105.9613739642  -104.1280406308  -100.9613739642   -98.6280406308   -94.1280406308   -89.6280406308   -87.1280406308   -84.1280406308   -79.1280406308   -74.6280406308   -69.1280406308   -64.9613739642   -60.4613739642   -56.6280406308   -52.4613739642   -49.2947072975   -48.6280406308   -50.1280406308   -51.2947072975   -51.9613739642   -52.9613739642   -53.7947072975   -52.4613739642   -50.6280406308   -49.2947072975   -47.2947072975   -46.4613739642   -45.1280406308   -42.7947072975   -39.6280406308   -37.7947072975   -34.7947072975   -31.2947072975   -26.9613739642   -23.9613739642   -19.7947072975   -15.7947072975   -12.4613739642    -9.2947072975    -5.1280406308    -1.1280406308     2.3719593692     5.5386260358     8.3719593692     9.0386260358     8.7052927025     7.3719593692     4.2052927025     3.5386260358     2.7052927025     3.8719593692     5.0386260358     6.3719593692     6.8719593692     7.2052927025     7.2052927025     5.8719593692     3.0386260358    -0.2947072975    -2.1280406308     0.0386260358     2.7052927025     6.7052927025    11.3719593692    14.7052927025    18.7052927025    21.0386260358    21.3719593692    21.5386260358    24.5386260358    27.5386260358    30.2052927025    32.7052927025    35.7052927025    39.8719593692    42.2052927025    39.8591285753    37.3462977814    35.1668003208    33.4873028602    31.4744720663    28.2949746057    25.7821438118    24.1026463513 
