  -14.9518281292   -16.6872164398   -21.0892714171   -27.4913263944   -31.0600480384   -33.6287696824   -37.3641579930   -44.0995463037   -47.7662129704   -48.4328796370   -47.9328796370   -50.5995463037   -55.2662129704   -56.5995463037   -56.0995463037   -56.0995463037   -58.2662129704   -62.5995463037   -66.0995463037   -66.4328796370   -68.2662129704   -71.2662129704   -75.4328796370   -77.9328796370   -78.7662129704   -81.4328796370   -86.5995463037   -93.5995463037  -100.0995463037  -105.5995463037  -111.2662129704  -117.2662129704  -125.0995463037  -131.2662129704  -134.2662129704  -137.5995463037  -143.2662129704  -150.9328796370  -155.5995463037  -156.4328796370  -157.4328796370  -157.9328796370  -161.5995463037  -163.2662129704  -159.9328796370  -155.9328796370  -155.7662129704  -159.2662129704  -162.9328796370  -164.5995463037  -164.7662129704  -165.5995463037  -167.7662129704  -168.9328796370  -168.0995463037  -167.7662129704  -170.0995463037  -176.0995463037  -179.7662129704  -182.0995463037  -185.9328796370  -191.7662129704  -197.5995463037  -201.4328796370  -200.9328796370  -197.7662129704  -198.7662129704  -202.2662129704  -203.5995463037  -202.2662129704  -203.2662129704  -207.9328796370  -215.0995463037  -221.0995463037  -224.5995463037  -226.2662129704  -229.9328796370  -234.9328796370  -236.5995463037  -234.4328796370  -232.0995463037  -233.9328796370  -236.9328796370  -238.7662129704  -237.0995463037  -235.7662129704  -235.2662129704  -235.4328796370  -234.7662129704  -232.4328796370  -231.4328796370  -233.4328796370  -235.0995463037  -234.4328796370  -232.0995463037  -230.2662129704  -231.2662129704  -235.0995463037  -236.5995463037  -237.5995463037  -240.9328796370  -247.7662129704  -256.5995463037  -263.2662129704  -264.4328796370  -263.9328796370  -265.2662129704  -269.4328796370  -273.0995463037  -274.7662129704  -276.7662129704  -282.0995463037  -289.2662129704  -292.2662129704  -293.5995463037  -291.2662129704  -288.7662129704  -286.5995463037  -282.2662129704  -276.5995463037  -272.9328796370  -272.9328796370  -273.9328796370  -272.9328796370  -269.9328796370  -269.2662129704  -271.9328796370  -273.9328796370  -272.4328796370  -270.0995463037  -267.5995463037  -269.2662129704  -274.5995463037  -276.7662129704  -275.9328796370  -272.9328796370  -272.5995463037  -274.4328796370  -274.5995463037  -272.5995463037  -271.4328796370  -271.2662129704  -271.9328796370  -271.5995463037  -270.2662129704  -267.9328796370  -267.7662129704  -267.0995463037  -264.5995463037  -261.5995463037  -258.7662129704  -258.0995463037  -258.5995463037  -255.9328796370  -251.9328796370  -246.7662129704  -243.5995463037  -241.7662129704  -239.4328796370  -234.9328796370  -231.0995463037  -228.5995463037  -226.9328796370  -224.7662129704  -219.0995463037  -215.0995463037  -215.9328796370  -220.9328796370  -222.4328796370  -220.5995463037  -219.4328796370  -222.2662129704  -225.9328796370  -226.2662129704  -220.9328796370  -216.4328796370  -212.7662129704  -216.5995463037  -217.2662129704  -218.7662129704  -224.7662129704  -236.9328796370  -245.2662129704  -255.4328796370  -255.5995463037  -262.4328796370  -294.4328796370  -329.0995463037  -365.0995463037  -416.4328796370  -477.5995463037  -556.5995463037  -627.9328796370  -703.4328796370  -774.9328796370  -832.5995463037  -848.9328796370  -879.2662129704  -893.2662129704  -900.9328796370  -903.0995463037  -899.4328796370  -884.2662129704  -824.4328796370  -747.5995463037  -687.5995463037  -608.7662129704  -533.7662129704  -483.5995463037  -425.7662129704  -369.5995463037  -314.7662129704  -293.0995463037  -276.2662129704  -256.4328796370  -203.7662129704  -140.5995463037  -102.5995463037   -57.4328796370   -85.4328796370  -117.7662129704   -94.5995463037   -36.2662129704    39.9004536963   124.4004536963   202.9004536963   246.0671203630   287.7337870296   320.2337870296   395.5671203630   453.4004536963   463.5671203630   440.9004536963   447.9004536963   459.9004536963   494.2337870296   510.2337870296   511.4004536963   470.0671203630   407.7337870296   338.0671203630   290.2337870296   269.7337870296   236.9004536963   234.4004536963   228.9004536963   227.2337870296   232.5671203630   240.7337870296   238.0671203630   231.5671203630   230.7337870296   234.2337870296   229.7337870296   222.5671203630   232.4004536963   257.4004536963   269.0671203630   291.4004536963   320.7337870296   322.4004536963   304.9004536963   273.2337870296   240.9004536963   207.7337870296   182.2337870296   166.0671203630   156.9004536963   147.4004536963   132.9004536963   114.5671203630   101.9004536963    86.9004536963    72.0671203630    51.5671203630    27.7337870296     3.9004536963   -18.4328796370   -33.9328796370   -42.0995463037   -43.2662129704   -48.4328796370   -62.7662129704   -80.0995463037   -89.4328796370   -92.5995463037  -100.7662129704  -110.7662129704  -115.7662129704  -118.0995463037  -120.2662129704  -125.4328796370  -134.4328796370  -142.4328796370  -146.5995463037  -147.4328796370  -152.4328796370  -159.4328796370  -161.4328796370  -162.0995463037  -165.9328796370  -171.2662129704  -172.0995463037  -170.7662129704  -169.7662129704  -169.7662129704  -171.4328796370  -172.9328796370  -168.7662129704  -160.4328796370  -155.9328796370  -155.5995463037  -154.0995463037  -149.9328796370  -144.2662129704  -137.2662129704  -132.0995463037  -132.0995463037  -131.2662129704  -127.4328796370  -121.9328796370  -118.2662129704  -117.0995463037  -116.0995463037  -114.5995463037  -114.9328796370  -114.4328796370  -115.0995463037  -117.2662129704  -117.4328796370  -117.2662129704  -118.2662129704  -119.5995463037  -117.9328796370  -112.4328796370  -109.9328796370  -111.5995463037  -111.9328796370  -109.5995463037  -104.5995463037   -99.5995463037   -96.9328796370   -97.0995463037   -95.7662129704   -92.0995463037   -89.5995463037   -89.9328796370   -92.2662129704   -92.5995463037   -89.4328796370   -89.2662129704   -89.0995463037   -90.2662129704   -91.5995463037   -92.9328796370   -93.2662129704   -95.4328796370   -96.2662129704   -97.0995463037   -96.7662129704   -94.9328796370   -94.9328796370   -96.0995463037   -95.7662129704   -94.7662129704   -96.7662129704   -99.9328796370  -105.2662129704  -107.0995463037  -104.2662129704  -101.0995463037  -101.5995463037  -104.5995463037  -106.4328796370  -101.9328796370   -96.9328796370   -96.0995463037   -97.4328796370   -98.0995463037   -96.4328796370   -94.4328796370   -93.4328796370   -93.7662129704   -91.2662129704   -86.7662129704   -86.9328796370   -88.5995463037   -90.2662129704   -89.4328796370   -89.2662129704   -90.9328796370   -92.9328796370   -95.4328796370   -95.4328796370   -92.4328796370   -89.5995463037   -88.9328796370   -89.0995463037   -88.4328796370   -84.4328796370   -81.5995463037   -80.2662129704   -81.9328796370   -82.2662129704   -80.4328796370   -77.0995463037   -77.0995463037   -81.0995463037   -81.5995463037   -80.5995463037   -81.4328796370   -85.7662129704   -90.5995463037   -93.2662129704   -91.7662129704   -90.7662129704   -91.2662129704   -93.4328796370   -91.2662129704   -86.9328796370   -82.0995463037   -80.4328796370   -81.7662129704   -81.7662129704   -81.4328796370   -80.7662129704   -81.4328796370   -81.5995463037   -79.4328796370   -75.5995463037   -73.4328796370   -73.7662129704   -74.5995463037   -74.7662129704   -73.0995463037   -72.9328796370   -76.2662129704   -79.4328796370   -78.7662129704   -74.9328796370   -69.7662129704   -66.2662129704   -64.0995463037   -61.0995463037   -56.4328796370   -51.0995463037   -47.0995463037   -45.2662129704   -43.2662129704   -37.0995463037   -32.4328796370   -31.0995463037   -33.4328796370   -34.2662129704   -31.7662129704   -28.7662129704   -27.7662129704   -29.7662129704   -29.2662129704   -26.5995463037   -24.2662129704   -25.7662129704   -29.2662129704   -31.9328796370   -32.5995463037   -33.5995463037   -33.7662129704   -33.0995463037   -28.5995463037   -22.2662129704   -18.0995463037   -17.9328796370   -23.0995463037   -20.1974913264   -16.4621030157   -14.5600480384   -14.6579930611   -13.2559380838    -9.8538831065    -5.7851614625    -3.8831064852 
   19.6929543635    20.4366159594    24.1802775554    27.4239391513    28.1676007473    27.0779290099    26.6549239392    29.2319188684    28.0652522018    22.5652522018    18.2319188684    15.7319188684    13.8985855351    13.2319188684    10.5652522018     9.0652522018     8.5652522018    11.0652522018    10.7319188684     7.5652522018     5.7319188684     6.3985855351     8.5652522018     7.7319188684     6.0652522018     5.3985855351     7.0652522018     8.5652522018     6.2319188684     0.5652522018    -3.7680811316    -6.6014144649    -6.7680811316    -9.4347477982   -15.6014144649   -18.9347477982   -18.6014144649   -15.7680811316   -15.1014144649   -17.7680811316   -20.7680811316   -19.9347477982   -18.4347477982   -19.6014144649   -20.6014144649   -19.9347477982   -14.6014144649    -7.9347477982    -5.4347477982    -7.1014144649    -6.4347477982    -3.7680811316    -1.2680811316    -3.1014144649    -6.2680811316    -6.4347477982    -2.7680811316     0.3985855351     0.8985855351     1.2319188684     2.0652522018     4.8985855351     6.2319188684     5.2319188684     4.8985855351     7.5652522018    12.0652522018    18.2319188684    21.8985855351    23.0652522018    23.5652522018    25.3985855351    29.2319188684    32.0652522018    33.7319188684    34.8985855351    37.5652522018    40.2319188684    41.5652522018    41.7319188684    40.0652522018    39.8985855351    41.2319188684    39.3985855351    33.8985855351    29.8985855351    29.8985855351    32.5652522018    33.0652522018    30.2319188684    29.3985855351    32.5652522018    36.5652522018    37.0652522018    34.8985855351    32.7319188684    33.8985855351    35.0652522018    33.8985855351    30.0652522018    29.5652522018    31.5652522018    33.3985855351    31.5652522018    26.3985855351    24.2319188684    24.0652522018    23.5652522018    20.7319188684    17.0652522018    14.7319188684    14.8985855351    15.0652522018    13.8985855351    12.2319188684    11.0652522018    11.8985855351    14.5652522018    13.7319188684    10.2319188684     8.2319188684     8.5652522018     9.7319188684     8.5652522018     6.8985855351     6.3985855351     6.7319188684     7.0652522018     7.2319188684     6.0652522018     4.2319188684     6.8985855351    11.2319188684    12.3985855351    11.8985855351    11.8985855351    12.8985855351    13.8985855351    12.3985855351    10.0652522018     7.2319188684     6.5652522018     9.7319188684    12.7319188684    11.2319188684     8.0652522018     7.5652522018     6.8985855351     3.0652522018    -2.6014144649    -6.2680811316    -6.7680811316    -3.6014144649    -1.7680811316    -0.7680811316     0.0652522018     3.0652522018     5.7319188684     3.0652522018    -2.1014144649    -3.2680811316     0.0652522018     4.8985855351     6.8985855351     6.0652522018     6.2319188684    10.8985855351    15.8985855351    17.3985855351    12.8985855351     7.8985855351     5.8985855351     5.8985855351     3.3985855351    -1.4347477982    -7.4347477982   -15.7680811316   -24.4347477982   -39.9347477982   -57.6014144649   -90.9347477982  -137.4347477982  -195.9347477982  -272.9347477982  -373.6014144649  -469.6014144649  -560.1014144649  -671.2680811316  -761.6014144649  -813.7680811316  -861.9347477982  -891.2680811316  -892.4347477982  -940.9347477982 -1043.4347477982 -1125.4347477982 -1195.4347477982 -1105.4347477982  -939.7680811316  -756.1014144649  -550.7680811316  -355.6014144649  -255.6014144649  -119.9347477982    -6.4347477982    47.7319188684    96.0652522018   160.3985855351   146.8985855351   113.3985855351   152.8985855351   275.7319188684   448.2319188684   460.3985855351   338.8985855351   231.3985855351   159.3985855351   118.0652522018   193.7319188684   260.0652522018   328.5652522018   427.8985855351   516.0652522018   532.2319188684   605.0652522018   745.7319188684   860.0652522018   865.0652522018   835.8985855351   798.8985855351   826.7319188684   858.3985855351   843.7319188684   811.7319188684   758.3985855351   716.8985855351   672.5652522018   618.0652522018   580.0652522018   573.8985855351   557.5652522018   534.2319188684   517.7319188684   515.3985855351   502.8985855351   514.2319188684   530.2319188684   522.8985855351   516.2319188684   509.5652522018   510.5652522018   493.7319188684   475.3985855351   455.0652522018   428.5652522018   418.7319188684   417.2319188684   416.3985855351   415.7319188684   408.3985855351   399.5652522018   389.8985855351   377.8985855351   362.8985855351   354.5652522018   340.2319188684   315.2319188684   289.5652522018   266.0652522018   242.0652522018   221.5652522018   193.0652522018   162.2319188684   132.8985855351   106.2319188684    79.2319188684    54.2319188684    33.5652522018    10.2319188684   -11.7680811316   -26.7680811316   -37.4347477982   -48.1014144649   -60.6014144649   -77.2680811316   -92.9347477982  -103.1014144649  -112.1014144649  -121.4347477982  -128.7680811316  -135.2680811316  -139.1014144649  -141.7680811316  -149.6014144649  -155.6014144649  -156.4347477982  -159.4347477982  -160.4347477982  -164.7680811316  -172.7680811316  -178.9347477982  -178.9347477982  -179.2680811316  -180.9347477982  -184.6014144649  -188.2680811316  -189.6014144649  -190.2680811316  -192.1014144649  -193.7680811316  -195.2680811316  -194.2680811316  -191.7680811316  -192.9347477982  -193.4347477982  -191.2680811316  -185.6014144649  -180.2680811316  -178.4347477982  -179.6014144649  -180.6014144649  -176.9347477982  -173.7680811316  -172.7680811316  -173.4347477982  -175.2680811316  -174.4347477982  -172.7680811316  -171.7680811316  -171.6014144649  -170.1014144649  -165.1014144649  -161.2680811316  -161.2680811316  -160.9347477982  -158.2680811316  -150.7680811316  -143.7680811316  -140.7680811316  -139.4347477982  -136.1014144649  -128.7680811316  -123.1014144649  -120.7680811316  -120.6014144649  -120.1014144649  -118.2680811316  -116.9347477982  -118.2680811316  -117.4347477982  -115.6014144649  -111.2680811316  -108.4347477982  -109.6014144649  -109.1014144649  -108.2680811316  -104.7680811316  -103.1014144649  -100.9347477982   -99.4347477982   -97.4347477982   -92.7680811316   -89.1014144649   -84.2680811316   -82.4347477982   -83.1014144649   -81.6014144649   -79.2680811316   -78.6014144649   -77.6014144649   -76.4347477982   -74.2680811316   -74.2680811316   -73.7680811316   -76.6014144649   -79.6014144649   -78.7680811316   -78.6014144649   -79.2680811316   -83.9347477982   -85.4347477982   -84.1014144649   -80.6014144649   -79.9347477982   -81.9347477982   -83.9347477982   -84.1014144649   -80.7680811316   -77.2680811316   -78.1014144649   -78.2680811316   -75.2680811316   -72.7680811316   -70.7680811316   -71.4347477982   -71.1014144649   -66.4347477982   -59.9347477982   -57.1014144649   -56.9347477982   -55.1014144649   -51.4347477982   -46.2680811316   -45.6014144649   -46.9347477982   -46.6014144649   -42.6014144649   -36.9347477982   -32.2680811316   -30.1014144649   -26.7680811316   -20.6014144649   -14.1014144649    -7.9347477982    -5.2680811316    -1.2680811316     4.2319188684     9.7319188684    10.3985855351    10.8985855351    13.5652522018    19.5652522018    26.5652522018    28.8985855351    25.5652522018    23.3985855351    24.7319188684    25.5652522018    22.0652522018    14.2319188684    10.0652522018     7.8985855351     8.0652522018     6.3985855351     4.8985855351     2.2319188684     1.3985855351     1.5652522018    -3.1014144649    -7.6014144649    -9.4347477982    -8.7680811316    -8.2680811316    -9.4347477982   -12.7680811316   -12.9347477982   -12.2680811316   -11.4347477982   -13.9347477982   -18.7680811316   -22.4347477982   -20.4347477982   -18.2680811316   -19.2680811316   -21.2680811316   -22.7680811316   -21.1014144649   -17.6014144649   -17.7680811316   -19.7680811316   -19.4347477982   -19.6014144649   -20.7680811316   -22.6014144649   -23.7680811316   -20.2680811316   -14.4347477982   -11.7680811316   -14.4347477982   -18.4347477982   -20.1014144649   -16.9347477982   -12.9347477982   -14.6784093942   -14.7554043235   -12.4990659194    -9.7427275153    -6.9863891113    -5.0633840406    -3.4737123032    -2.2173738991 
   -1.0935414999    -0.0113424073     3.7375233520     7.1530557780     8.5685882039     7.4841206298     6.8996530558     8.8151854817    10.6485188151    11.3151854817    10.9818521484    12.3151854817    16.1485188151    18.6485188151    17.8151854817    14.1485188151    13.4818521484    13.4818521484     9.9818521484     7.1485188151     5.3151854817     5.9818521484     9.6485188151     9.9818521484     7.9818521484     5.9818521484     6.9818521484    10.1485188151    11.8151854817    10.3151854817    10.6485188151    12.9818521484    15.3151854817    17.4818521484    19.6485188151    19.6485188151    19.3151854817    19.9818521484    18.1485188151    16.3151854817    14.3151854817    13.8151854817    14.1485188151    12.8151854817     8.3151854817     4.4818521484     0.3151854817     0.3151854817     0.8151854817    -0.6848145183    -1.6848145183    -0.1848145183     4.3151854817     8.4818521484     9.8151854817     8.3151854817     8.4818521484     9.9818521484    12.4818521484    12.6485188151    13.3151854817    14.6485188151    17.9818521484    17.3151854817    13.6485188151     9.4818521484     4.9818521484     1.8151854817    -0.5181478516    -2.8514811849    -5.0181478516    -3.5181478516    -1.0181478516     3.1485188151     2.9818521484     0.4818521484    -0.5181478516     1.4818521484     3.4818521484     3.3151854817     3.6485188151     6.8151854817    12.9818521484    18.4818521484    17.8151854817    14.8151854817    15.6485188151    19.3151854817    23.3151854817    23.9818521484    24.3151854817    27.4818521484    33.1485188151    37.3151854817    37.1485188151    37.3151854817    38.3151854817    39.6485188151    38.6485188151    34.9818521484    32.8151854817    33.4818521484    35.8151854817    36.6485188151    33.6485188151    28.4818521484    26.4818521484    25.3151854817    21.9818521484    17.3151854817    13.1485188151    11.1485188151    12.6485188151    12.9818521484     9.1485188151     5.3151854817     4.9818521484     7.1485188151     6.4818521484     3.3151854817     0.8151854817     1.8151854817     4.8151854817     7.4818521484    10.1485188151    10.6485188151    14.1485188151    18.9818521484    21.1485188151    21.1485188151    21.6485188151    22.3151854817    22.4818521484    19.3151854817    14.3151854817     9.1485188151     6.3151854817     5.1485188151     3.4818521484     2.6485188151    -1.3514811849    -3.3514811849    -3.6848145183    -4.6848145183    -8.1848145183   -12.0181478516   -11.3514811849    -6.8514811849    -4.5181478516    -4.3514811849    -2.3514811849     1.6485188151     4.9818521484     3.1485188151   -11.0181478516   -31.8514811849   -51.5181478516  -112.0181478516  -176.1848145183  -248.8514811849  -326.0181478516  -401.3514811849  -490.0181478516  -576.0181478516  -650.6848145183  -704.0181478516  -722.5181478516  -718.8514811849  -687.6848145183  -727.6848145183  -735.8514811849  -723.0181478516  -657.1848145183  -530.3514811849  -438.1848145183  -358.6848145183  -289.1848145183  -228.8514811849  -155.8514811849   -97.3514811849   -58.1848145183    -3.6848145183    13.4818521484   -22.6848145183  -116.6848145183  -154.0181478516  -229.0181478516  -306.3514811849  -361.3514811849  -373.8514811849  -369.8514811849  -362.6848145183  -329.3514811849  -286.5181478516  -200.5181478516  -101.1848145183    -5.3514811849    66.1485188151   166.8151854817   283.3151854817   425.8151854817   585.8151854817   752.8151854817   890.8151854817   930.1485188151   888.9818521484   849.8151854817   826.9818521484   787.6485188151   788.9818521484   735.6485188151   702.9818521484   684.3151854817   666.3151854817   613.6485188151   538.9818521484   465.1485188151   405.8151854817   334.8151854817   288.8151854817   280.9818521484   312.9818521484   369.4818521484   421.9818521484   471.8151854817   482.3151854817   508.8151854817   513.8151854817   513.9818521484   495.1485188151   480.4818521484   503.9818521484   532.4818521484   547.8151854817   581.6485188151   600.1485188151   603.9818521484   587.4818521484   562.3151854817   537.6485188151   514.8151854817   487.3151854817   457.8151854817   425.9818521484   397.3151854817   373.1485188151   348.6485188151   318.4818521484   283.1485188151   244.8151854817   204.4818521484   170.1485188151   135.4818521484    99.9818521484    66.9818521484    36.9818521484    15.6485188151    -3.3514811849   -28.8514811849   -55.8514811849   -83.0181478516  -104.3514811849  -120.8514811849  -133.0181478516  -142.5181478516  -152.6848145183  -158.8514811849  -163.0181478516  -165.6848145183  -170.0181478516  -177.0181478516  -183.1848145183  -189.0181478516  -193.1848145183  -193.1848145183  -193.3514811849  -191.3514811849  -191.6848145183  -192.3514811849  -191.6848145183  -191.8514811849  -191.1848145183  -188.1848145183  -185.3514811849  -184.1848145183  -183.5181478516  -180.5181478516  -175.3514811849  -171.5181478516  -169.6848145183  -170.0181478516  -169.0181478516  -167.3514811849  -164.8514811849  -164.1848145183  -166.5181478516  -166.3514811849  -161.1848145183  -155.3514811849  -152.3514811849  -148.5181478516  -141.8514811849  -135.5181478516  -130.1848145183  -127.3514811849  -125.1848145183  -121.1848145183  -115.5181478516  -111.6848145183  -110.1848145183  -113.6848145183  -117.1848145183  -117.5181478516  -118.0181478516  -120.5181478516  -123.3514811849  -123.0181478516  -121.0181478516  -118.0181478516  -117.3514811849  -117.8514811849  -115.1848145183  -109.6848145183  -104.6848145183  -102.6848145183  -102.8514811849   -97.5181478516   -89.0181478516   -79.6848145183   -76.1848145183   -76.3514811849   -74.6848145183   -74.1848145183   -75.6848145183   -77.8514811849   -78.3514811849   -77.3514811849   -75.5181478516   -75.1848145183   -78.6848145183   -82.5181478516   -84.0181478516   -83.3514811849   -83.3514811849   -88.1848145183   -91.8514811849   -90.5181478516   -88.5181478516   -86.3514811849   -87.5181478516   -90.8514811849   -92.1848145183   -88.6848145183   -86.5181478516   -88.3514811849   -90.3514811849   -89.3514811849   -83.6848145183   -78.6848145183   -76.5181478516   -76.6848145183   -75.6848145183   -73.8514811849   -73.1848145183   -76.0181478516   -78.5181478516   -77.6848145183   -76.3514811849   -76.6848145183   -78.8514811849   -80.6848145183   -80.0181478516   -77.6848145183   -77.1848145183   -79.3514811849   -81.5181478516   -80.8514811849   -77.3514811849   -76.1848145183   -75.5181478516   -73.8514811849   -70.8514811849   -65.6848145183   -61.6848145183   -60.5181478516   -60.0181478516   -56.8514811849   -52.6848145183   -48.3514811849   -49.0181478516   -50.1848145183   -49.3514811849   -45.5181478516   -43.5181478516   -43.3514811849   -44.6848145183   -44.5181478516   -42.6848145183   -44.6848145183   -48.8514811849   -52.3514811849   -54.6848145183   -55.8514811849   -56.0181478516   -58.6848145183   -59.8514811849   -59.5181478516   -57.0181478516   -56.8514811849   -57.3514811849   -59.5181478516   -59.6848145183   -57.3514811849   -55.1848145183   -54.6848145183   -53.8514811849   -53.8514811849   -50.0181478516   -46.8514811849   -47.1848145183   -49.0181478516   -49.0181478516   -47.0181478516   -44.1848145183   -44.0181478516   -48.0181478516   -49.5181478516   -47.8514811849   -47.1848145183   -49.5181478516   -50.8514811849   -49.1848145183   -46.3514811849   -46.8514811849   -50.0181478516   -53.0181478516   -53.5181478516   -51.8514811849   -50.8514811849   -55.6848145183   -59.1848145183   -57.3514811849   -51.8514811849   -48.6848145183   -49.1848145183   -48.1848145183   -46.6848145183   -45.1848145183   -41.5181478516   -39.5181478516   -37.8514811849   -34.5181478516   -31.0181478516   -29.5181478516   -32.0181478516   -32.1848145183   -28.8514811849   -24.3514811849   -22.8514811849   -23.3514811849   -24.5181478516   -24.6848145183   -21.1848145183   -18.3514811849   -19.5181478516   -20.5181478516   -19.8514811849   -18.8514811849   -18.5181478516   -18.6848145183   -18.0181478516   -15.8514811849   -13.6848145183   -14.4336802776   -15.0158793702   -14.4314117961   -11.0136108887    -8.2624766480    -9.1780090739   -11.7602081665   -12.0090739258 
   -8.9766105319    -8.7888265170    -7.6010425020    -4.7465918204     0.6078588613     3.2956428762     2.8167602245     1.8378775729     1.8378775729     1.8378775729     0.8378775729    -0.1621224271     3.6712109062     9.3378775729    12.1712109062    11.6712109062    10.1712109062     9.1712109062    11.0045442395    11.5045442395     6.6712109062     2.6712109062     2.3378775729     6.5045442395     9.0045442395     7.5045442395     5.1712109062     5.6712109062     8.0045442395     8.1712109062     8.0045442395     7.1712109062     9.1712109062    11.8378775729    11.6712109062     8.3378775729     5.5045442395     4.8378775729     6.0045442395     4.0045442395     1.3378775729     0.6712109062     3.0045442395     6.3378775729     7.1712109062     5.8378775728     2.8378775728     3.5045442395     2.8378775729     2.8378775729    -0.3287890938    -3.8287890938    -3.4954557605     0.1712109062     2.0045442395     2.3378775728     0.8378775728     0.1712109062     2.1712109062     2.5045442395     1.5045442395     1.0045442395     2.1712109062     5.3378775729     8.6712109062     7.3378775728     9.5045442395    15.6712109062    22.1712109062    23.6712109062    22.5045442395    19.1712109062    17.6712109062    19.6712109062    18.6712109062    14.0045442395     8.6712109062     5.5045442395     5.6712109062     3.3378775729    -1.8287890938    -6.8287890938   -10.8287890938   -13.8287890938   -16.4954557605   -18.6621224271   -21.6621224271   -20.6621224271   -15.8287890938   -13.8287890938   -13.1621224271    -7.3287890938     0.3378775728     8.8378775728    16.3378775728    21.8378775728    26.3378775728    32.6712109062    38.6712109062    43.1712109062    43.8378775728    43.3378775728    45.8378775728    48.1712109062    48.0045442395    48.5045442395    47.1712109062    44.1712109062    44.1712109062    45.0045442395    44.8378775728    40.6712109062    37.6712109062    36.5045442395    32.5045442395    27.1712109062    22.5045442395    21.0045442395    21.1712109062    22.1712109062    19.5045442395    11.5045442395     6.1712109062     5.1712109062     3.5045442395    -1.3287890938    -8.1621224271    -8.3287890938    -2.8287890938     0.3378775729     1.3378775729     0.5045442395     1.6712109062     4.0045442395     5.5045442395     3.6712109062     2.0045442395     4.6712109062    10.6712109062    13.8378775729    13.0045442395    10.1712109062     8.3378775729     9.3378775729     8.0045442395     5.3378775729     2.5045442395     3.3378775729     7.0045442395     6.8378775729     2.6712109062    -1.8287890938    -1.6621224272     0.0045442395    -0.9954557605    -4.8287890938    -9.9954557605    -9.1621224271   -13.9954557605   -30.3287890938   -51.1621224271   -86.6621224271  -126.1621224271  -153.1621224271  -195.4954557605  -250.9954557605  -302.1621224271  -358.9954557605  -418.9954557605  -463.3287890938  -497.1621224271  -557.1621224271  -606.6621224271  -644.4954557605  -678.9954557605  -698.4954557605  -710.3287890938  -693.6621224271  -637.1621224271  -592.4954557605  -570.1621224272  -531.4954557605  -455.9954557605  -344.6621224272  -253.4954557605  -235.4954557605  -263.1621224271  -275.3287890938  -214.1621224272  -126.1621224272   -48.4954557605    44.0045442395   168.8378775728   258.6712109062   304.8378775728   325.1712109062   335.8378775729   398.5045442395   439.3378775728   447.0045442395   449.1712109062   491.0045442395   577.3378775728   680.5045442395   713.3378775728   709.0045442395   711.1712109062   682.1712109062   616.0045442395   561.1712109062   507.6712109062   478.3378775729   485.3378775729   442.6712109062   386.5045442395   343.1712109062   335.0045442395   356.3378775729   369.0045442395   374.5045442395   352.1712109062   310.5045442395   296.8378775729   298.1712109062   301.0045442395   311.1712109062   328.0045442395   340.6712109062   351.0045442395   362.8378775728   383.5045442395   396.3378775729   398.3378775729   387.0045442395   371.1712109062   355.3378775728   351.8378775728   362.3378775728   352.5045442395   336.3378775728   316.3378775728   300.1712109062   284.1712109062   275.3378775728   274.0045442395   263.3378775728   236.1712109062   204.3378775728   173.5045442395   145.0045442395   122.3378775728    99.5045442395    81.8378775729    67.3378775729    49.6712109062    31.3378775729    14.6712109062    -1.1621224271   -12.4954557605   -26.8287890938   -42.9954557605   -57.8287890938   -67.8287890938   -70.4954557605   -72.3287890938   -74.6621224271   -77.9954557605   -77.4954557605   -77.1621224272   -78.3287890938   -78.3287890938   -80.1621224271   -79.1621224271   -78.3287890938   -78.8287890938   -81.1621224271   -81.8287890938   -79.4954557605   -74.1621224271   -71.3287890938   -68.3287890938   -68.6621224271   -72.3287890938   -74.9954557605   -77.6621224271   -82.8287890938   -86.4954557605   -84.3287890938   -80.8287890938   -76.4954557605   -76.4954557605   -77.6621224272   -77.1621224272   -75.3287890938   -74.8287890938   -76.6621224271   -78.6621224271   -78.1621224271   -75.3287890938   -73.1621224271   -71.6621224271   -69.9954557605   -68.8287890938   -67.9954557605   -68.9954557605   -74.4954557605   -79.1621224271   -79.6621224271   -77.3287890938   -75.9954557605   -76.8287890938   -78.6621224271   -77.6621224271   -76.1621224271   -74.6621224271   -76.4954557605   -79.3287890938   -79.9954557605   -77.1621224271   -77.8287890938   -80.6621224272   -82.4954557605   -79.3287890938   -73.9954557605   -70.1621224271   -69.6621224271   -70.4954557605   -66.8287890938   -62.4954557605   -58.8287890938   -58.6621224271   -59.3287890938   -57.8287890938   -52.9954557605   -53.8287890938   -55.1621224271   -58.3287890938   -58.3287890938   -56.9954557605   -57.6621224271   -59.3287890938   -61.9954557605   -62.6621224271   -62.8287890938   -62.3287890938   -65.6621224271   -67.9954557605   -66.4954557605   -61.8287890938   -58.3287890938   -53.1621224272   -50.9954557605   -44.8287890938   -39.3287890938   -36.1621224272   -33.3287890938   -31.6621224272   -26.1621224272   -19.3287890938   -14.9954557605   -15.9954557605   -15.6621224271   -14.3287890938   -10.4954557605   -11.1621224271   -16.4954557605   -21.4954557605   -21.9954557605   -20.6621224271   -19.4954557605   -20.8287890938   -23.4954557605   -24.6621224271   -24.3287890938   -25.4954557605   -27.1621224271   -28.9954557605   -29.9954557605   -27.9954557605   -29.6621224271   -33.9954557605   -38.3287890938   -40.8287890938   -42.1621224271   -46.3287890938   -52.3287890938   -57.3287890938   -61.8287890938   -64.3287890938   -66.9954557605   -72.3287890938   -80.1621224271   -82.6621224271   -80.4954557605   -78.8287890938   -80.1621224271   -78.3287890938   -73.4954557605   -68.4954557605   -64.4954557605   -62.3287890938   -59.1621224271   -54.6621224271   -46.8287890938   -43.1621224271   -42.4954557605   -41.3287890938   -35.9954557605   -30.9954557605   -30.3287890938   -31.8287890938   -31.3287890938   -29.3287890938   -24.8287890938   -22.4954557605   -23.3287890938   -24.6621224271   -23.4954557605   -21.1621224271   -21.4954557605   -22.1621224271   -21.3287890938   -17.8287890938   -12.8287890938    -9.6621224271    -8.4954557605    -9.3287890938    -8.6621224271    -7.3287890938    -9.4954557605   -11.4954557605   -13.3287890938   -13.6621224271   -12.4954557605   -11.3287890938   -12.1621224272   -13.3287890938   -13.8287890938   -12.4954557605   -13.4954557605   -16.9954557605   -19.1621224271   -16.8287890938   -12.9954557605   -11.4954557605   -13.1621224271   -15.6621224271   -15.3287890938   -12.4954557605   -12.8287890938   -16.4954557605   -20.6621224271   -20.8287890938   -19.6621224271   -19.8287890938   -20.6621224271   -20.9954557605   -20.6621224271   -22.4954557605   -24.8287890938   -27.6621224271   -28.4954557605   -26.9954557605   -23.8287890938   -20.8287890938   -18.1621224271   -14.6621224271    -7.9954557605    -0.3287890938     6.0045442395     9.1712109062     9.0045442395     9.3378775729    11.3167602245    13.1289762096    13.4411921946    14.7534081796    17.7322908313    19.3778401497    19.3567228014    17.3356054531 
   22.4943955164    21.9382172405    22.5487056312    25.9925273552    29.7696824126    29.8801708033    29.1573258607    30.6011475847    28.1011475847    23.9344809181    18.6011475847    17.1011475847    18.2678142514    19.6011475847    21.2678142514    21.7678142514    23.9344809181    27.6011475847    28.2678142514    23.7678142514    17.7678142514    15.4344809181    17.1011475847    17.7678142514    17.6011475847    15.4344809181    15.6011475847    18.7678142514    21.9344809181    20.7678142514    14.9344809181     9.7678142514     7.4344809181     7.4344809181     9.7678142514    11.7678142514    13.4344809181    15.6011475847    13.7678142514     8.2678142514     2.2678142514    -1.8988524153    -2.0655190819    -3.5655190819    -7.0655190819   -11.2321857486   -11.3988524153    -7.8988524153    -4.3988524153    -5.2321857486    -8.3988524153   -10.0655190819    -7.8988524153    -3.3988524153     2.1011475847     6.6011475847    10.1011475847    17.1011475847    23.9344809181    26.1011475847    24.7678142514    26.4344809181    29.2678142514    31.4344809181    30.1011475847    25.2678142514    23.6011475847    24.7678142514    24.9344809181    21.2678142514    15.2678142514    10.6011475847     8.2678142514     6.7678142514     1.6011475847    -3.7321857486    -4.2321857486    -0.7321857486     3.7678142514     6.1011475847     6.4344809181    10.2678142514    15.1011475847    18.1011475847    19.7678142514    20.1011475847    22.6011475847    29.4344809181    36.4344809181    37.6011475847    36.1011475847    36.1011475847    37.9344809181    34.9344809181    30.1011475847    25.1011475847    23.1011475847    22.9344809181    22.2678142514    20.9344809181    17.7678142514    17.4344809181    17.1011475847    16.9344809181    13.4344809181     7.6011475847     4.1011475847     5.9344809181     8.6011475847    11.4344809181     9.7678142514     9.1011475847    10.7678142514    13.1011475847    11.4344809181     7.1011475847     5.6011475847     7.2678142514    10.6011475847     9.2678142514     9.6011475847    14.7678142514    21.4344809181    24.6011475847    23.2678142514    20.7678142514    20.6011475847    21.6011475847    22.9344809181    20.7678142514    20.1011475847    23.1011475847    26.4344809181    26.2678142514    24.1011475847    20.7678142514    18.6011475847    19.1011475847    19.7678142514    17.4344809181    13.4344809181    12.1011475847    13.6011475847    14.4344809181    11.6011475847     8.6011475847     6.1011475847     4.6011475847     3.7678142514     3.1011475847     2.6011475847     6.2678142514    11.4344809181    13.9344809181    13.7678142514    13.9344809181    13.6011475847    14.4344809181    17.1011475847    19.1011475847    19.2678142514    23.2678142514    29.2678142514    32.7678142514    32.2678142514    30.4344809181    27.9344809181    27.1011475847    24.6011475847    20.9344809181    17.7678142514    17.7678142514    22.6011475847    26.4344809181    24.6011475847    20.2678142514    18.1011475847    13.2678142514     7.6011475847     3.2678142514     0.1011475847    -5.2321857486    -6.2321857486   -20.2321857486   -47.5655190819   -71.2321857486  -120.7321857486  -173.5655190819  -235.0655190819  -305.5655190819  -355.5655190819  -398.8988524153  -486.2321857486  -556.3988524153  -626.2321857486  -672.5655190819  -683.0655190819  -693.3988524153  -708.7321857486  -679.0655190819  -624.2321857486  -599.7321857486  -533.7321857486  -449.7321857486  -383.5655190819  -306.8988524153  -264.3988524153  -212.3988524153  -103.2321857486   -69.3988524153   -27.7321857486    -4.7321857486   -47.5655190819   -62.8988524153   -54.3988524153   -86.5655190819  -119.8988524153   -71.3988524153   -12.2321857486    22.2678142514    60.9344809181    80.1011475847    73.1011475847    70.2678142514    94.1011475847   192.9344809181   275.7678142514   345.9344809181   445.6011475847   521.9344809181   581.4344809181   643.9344809181   671.2678142514   641.1011475847   560.4344809181   502.6011475847   460.6011475847   437.1011475847   476.2678142514   499.4344809181   482.9344809181   434.4344809181   392.4344809181   361.7678142514   327.6011475847   297.4344809181   259.6011475847   219.7678142514   211.6011475847   213.9344809181   242.9344809181   258.4344809181   282.6011475847   304.2678142514   300.7678142514   289.6011475847   277.2678142514   283.4344809181   292.1011475847   296.6011475847   303.2678142514   302.6011475847   302.1011475847   304.6011475847   292.7678142514   266.2678142514   245.1011475847   225.6011475847   201.9344809181   177.9344809181   155.9344809181   141.4344809181   131.6011475847   119.7678142514   102.4344809181    82.2678142514    62.7678142514    46.7678142514    33.6011475847    20.4344809181    11.2678142514     8.6011475847     1.2678142514    -7.2321857486   -17.7321857486   -28.7321857486   -35.7321857486   -40.3988524153   -46.0655190819   -54.7321857486   -63.5655190819   -70.8988524153   -75.2321857486   -76.8988524153   -78.5655190819   -81.8988524153   -84.3988524153   -84.8988524153   -83.3988524153   -82.3988524153   -81.7321857486   -78.2321857486   -72.8988524153   -69.7321857486   -70.0655190819   -70.2321857486   -68.2321857486   -63.8988524153   -58.5655190819   -56.7321857486   -55.5655190819   -52.2321857486   -41.7321857486   -32.0655190819   -28.0655190819   -27.2321857486   -25.7321857486   -23.2321857486   -22.3988524153   -25.5655190819   -29.3988524153   -31.8988524153   -30.3988524153   -27.5655190819   -27.7321857486   -31.5655190819   -36.3988524153   -38.0655190819   -44.8988524153   -51.0655190819   -56.2321857486   -59.5655190819   -60.0655190819   -62.2321857486   -66.8988524153   -72.2321857486   -77.3988524153   -79.2321857486   -81.7321857486   -87.2321857486   -93.7321857486   -95.7321857486   -96.7321857486   -95.3988524153   -94.5655190819   -96.7321857486   -98.8988524153   -97.7321857486   -97.3988524153   -98.2321857486  -100.3988524153   -99.7321857486   -94.7321857486   -90.0655190819   -87.2321857486   -85.5655190819   -82.5655190819   -80.2321857486   -76.7321857486   -78.8988524153   -82.3988524153   -82.7321857486   -79.8988524153   -79.3988524153   -80.7321857486   -83.0655190819   -82.3988524153   -79.7321857486   -78.2321857486   -80.2321857486   -84.2321857486   -85.7321857486   -86.7321857486   -88.0655190819   -90.3988524153   -92.0655190819   -93.2321857486   -94.0655190819   -96.7321857486   -99.7321857486  -102.8988524153  -104.2321857486  -105.0655190819  -106.8988524153  -109.2321857486  -110.8988524153  -110.5655190819  -108.2321857486  -105.8988524153  -105.7321857486  -109.8988524153  -113.7321857486  -111.5655190819  -109.7321857486  -109.8988524153  -111.0655190819  -110.3988524153  -108.7321857486  -106.0655190819  -105.5655190819  -106.7321857486  -106.2321857486  -103.8988524153  -102.7321857486  -101.5655190819  -101.0655190819   -98.2321857486   -91.8988524153   -87.7321857486   -86.5655190819   -87.3988524153   -88.0655190819   -84.2321857486   -79.7321857486   -79.0655190819   -80.0655190819   -79.7321857486   -78.5655190819   -78.3988524153   -78.0655190819   -81.2321857486   -82.8988524153   -79.5655190819   -78.2321857486   -80.7321857486   -83.7321857486   -83.8988524153   -80.7321857486   -79.8988524153   -82.5655190819   -84.2321857486   -83.8988524153   -81.3988524153   -78.2321857486   -76.3988524153   -77.3988524153   -76.8988524153   -75.3988524153   -75.0655190819   -75.7321857486   -75.2321857486   -73.3988524153   -69.7321857486   -66.2321857486   -66.3988524153   -67.5655190819   -68.3988524153   -63.8988524153   -61.0655190819   -61.7321857486   -65.2321857486   -67.0655190819   -64.0655190819   -60.7321857486   -59.8988524153   -60.8988524153   -61.2321857486   -58.8988524153   -55.8988524153   -57.5655190819   -60.0655190819   -59.8988524153   -56.8988524153   -56.0655190819   -58.2321857486   -62.3988524153   -62.8988524153   -60.0655190819   -58.2321857486   -57.8988524153   -59.3988524153   -58.7321857486   -54.0655190819   -50.6760074726   -49.6198291967   -46.2303175874   -40.6741393114   -34.9512943688   -31.7284494262   -30.8389378169   -27.6160928743 
   -1.4184652278    -1.9279243272    -2.9373834266    -4.1135091926    -3.7896349587    -1.2990940581     0.6914468425     0.6819877431    -0.4846789235     1.1819877431     4.6819877431     6.6819877431     5.1819877431     6.0153210765     9.8486544098    14.5153210765    18.3486544098    22.0153210765    24.8486544098    27.0153210765    31.3486544098    33.8486544098    33.0153210765    33.1819877431    35.0153210765    38.8486544098    41.0153210765    39.3486544098    37.5153210765    37.8486544098    40.0153210765    41.8486544098    40.3486544098    36.0153210765    32.0153210765    29.6819877431    23.3486544098    15.6819877431    14.3486544098    15.6819877431    17.5153210765    16.1819877431    11.8486544098     7.6819877431     6.1819877431     6.3486544098     3.3486544098    -1.3180122569    -2.4846789235     0.0153210765     3.6819877431     8.0153210765    10.6819877431    12.6819877431    12.5153210765    13.0153210765    14.5153210765    14.8486544098    15.5153210765    17.8486544098    20.3486544098    20.3486544098    17.1819877431    13.0153210765     9.6819877431     9.8486544098    11.6819877431    11.3486544098    10.3486544098    11.6819877431    13.8486544098    13.6819877431     9.6819877431     4.8486544098     0.8486544098     1.3486544098     3.1819877431     2.6819877431     3.6819877431     8.0153210765    12.8486544098    13.6819877431    10.5153210765     3.0153210765     0.1819877431    -0.1513455902    -1.6513455902    -6.3180122569   -11.4846789235   -14.1513455902   -14.4846789235   -17.6513455902   -22.8180122569   -27.6513455902   -29.9846789235   -30.6513455902   -31.8180122569   -35.9846789235   -38.6513455902   -36.8180122569   -35.4846789235   -39.1513455902   -44.9846789235   -48.9846789235   -49.1513455902   -48.9846789235   -50.9846789235   -53.3180122569   -55.6513455902   -53.6513455902   -50.6513455902   -49.3180122569   -50.8180122569   -52.3180122569   -51.6513455902   -49.6513455902   -51.3180122569   -51.3180122569   -50.8180122569   -48.1513455902   -43.3180122569   -37.6513455902   -33.1513455902   -30.6513455902   -25.9846789235   -22.1513455902   -19.6513455902   -21.6513455902   -23.8180122569   -23.4846789235   -22.4846789235   -21.6513455902   -20.1513455902   -19.3180122569   -14.1513455902    -6.6513455902    -1.3180122569     0.8486544098     2.1819877431     4.1819877431     4.3486544098     4.3486544098     1.3486544098    -1.6513455902    -0.8180122569     4.8486544098     8.5153210765     8.6819877431     8.5153210765     9.8486544098    11.6819877431    11.3486544098     7.3486544098     2.5153210765     0.8486544098     0.5153210765     0.1819877431    -1.1513455902    -1.1513455902     3.1819877431     7.1819877431     7.5153210765     4.6819877431     2.8486544098     3.6819877431     4.6819877431     1.8486544098    -4.9846789235   -10.3180122569    -9.9846789235    -7.9846789235    -6.1513455902    -5.3180122569    -6.6513455902    -5.3180122569    -2.1513455902    -0.4846789235    -3.9846789235    -6.9846789235    -6.3180122569    -2.8180122569    -2.1513455902    -6.9846789235    -9.6513455902   -12.8180122569   -23.8180122569   -38.3180122569   -64.9846789235  -106.1513455902  -161.6513455902  -205.1513455902  -268.3180122569  -355.4846789235  -423.6513455902  -488.3180122569  -551.4846789235  -589.8180122569  -595.9846789235  -573.1513455902  -588.6513455902  -633.8180122569  -624.8180122569  -610.3180122569  -600.8180122569  -540.9846789235  -470.6513455902  -406.8180122569  -320.1513455902  -226.3180122569  -150.9846789235   -87.6513455902   -18.9846789235    34.3486544098    75.5153210765    86.8486544098   115.6819877431   158.8486544098   141.5153210765   134.3486544098   158.3486544098   152.6819877431   156.3486544098   129.0153210765   125.1819877431   145.0153210765   135.3486544098   146.3486544098   159.8486544098   185.3486544098   214.5153210765   255.5153210765   317.1819877431   384.5153210765   451.6819877431   501.5153210765   524.3486544098   540.3486544098   532.3486544098   553.6819877431   541.6819877431   530.1819877431   559.3486544098   575.0153210765   577.1819877431   554.0153210765   503.1819877431   440.5153210765   372.3486544098   328.0153210765   296.8486544098   275.0153210765   270.5153210765   263.8486544098   272.3486544098   273.0153210765   282.0153210765   279.8486544098   269.3486544098   260.6819877431   253.0153210765   245.0153210765   240.5153210765   237.0153210765   238.0153210765   226.8486544098   215.3486544098   196.5153210765   170.3486544098   144.1819877431   121.8486544098   105.5153210765    85.5153210765    65.8486544098    46.1819877431    27.3486544098    12.0153210765    -3.6513455902   -17.8180122569   -25.4846789235   -31.9846789235   -41.3180122569   -47.8180122569   -54.8180122569   -60.3180122569   -60.4846789235   -57.9846789235   -61.3180122569   -67.8180122569   -77.9846789235   -87.3180122569   -84.6513455902   -79.6513455902   -74.3180122569   -70.4846789235   -67.6513455902   -61.4846789235   -51.3180122569   -50.1513455902   -51.6513455902   -51.1513455902   -50.8180122569   -49.1513455902   -46.4846789235   -43.3180122569   -32.1513455902   -17.1513455902   -12.8180122569   -14.6513455902   -17.9846789235   -17.4846789235   -14.3180122569   -14.9846789235   -21.9846789235   -24.8180122569   -22.1513455902   -18.6513455902   -17.1513455902   -21.6513455902   -26.1513455902   -26.6513455902   -27.8180122569   -34.6513455902   -44.3180122569   -52.4846789235   -56.4846789235   -59.4846789235   -64.4846789235   -69.6513455902   -73.3180122569   -74.1513455902   -75.4846789235   -77.1513455902   -79.1513455902   -79.8180122569   -78.9846789235   -77.1513455902   -76.3180122569   -73.8180122569   -69.6513455902   -65.8180122569   -63.3180122569   -63.9846789235   -64.8180122569   -65.3180122569   -60.4846789235   -56.4846789235   -53.6513455902   -54.6513455902   -56.3180122569   -55.3180122569   -51.8180122569   -51.1513455902   -50.8180122569   -51.3180122569   -50.8180122569   -47.6513455902   -45.4846789235   -43.4846789235   -43.9846789235   -43.3180122569   -43.4846789235   -44.4846789235   -47.6513455902   -48.4846789235   -45.6513455902   -41.3180122569   -40.8180122569   -42.9846789235   -47.4846789235   -49.3180122569   -46.6513455902   -45.8180122569   -46.9846789235   -48.6513455902   -46.8180122569   -43.6513455902   -41.8180122569   -44.1513455902   -44.9846789235   -45.4846789235   -46.1513455902   -48.6513455902   -53.9846789235   -56.9846789235   -54.3180122569   -51.4846789235   -53.6513455902   -58.9846789235   -62.6513455902   -64.9846789235   -64.6513455902   -66.3180122569   -69.1513455902   -71.9846789235   -72.3180122569   -69.9846789235   -68.4846789235   -68.4846789235   -66.9846789235   -63.6513455902   -61.6513455902   -60.8180122569   -61.8180122569   -62.6513455902   -60.9846789235   -54.8180122569   -49.8180122569   -47.9846789235   -47.6513455902   -43.4846789235   -38.4846789235   -37.3180122569   -39.1513455902   -39.6513455902   -36.4846789235   -30.9846789235   -26.9846789235   -26.6513455902   -27.1513455902   -25.9846789235   -23.4846789235   -23.4846789235   -25.9846789235   -26.3180122569   -23.8180122569   -20.1513455902   -19.8180122569   -20.9846789235   -21.8180122569   -22.9846789235   -23.3180122569   -27.3180122569   -34.1513455902   -38.8180122569   -38.9846789235   -35.1513455902   -34.9846789235   -38.9846789235   -43.1513455902   -44.3180122569   -44.6513455902   -47.3180122569   -51.1513455902   -52.4846789235   -50.1513455902   -47.4846789235   -48.3180122569   -50.6513455902   -49.8180122569   -45.6513455902   -40.6513455902   -37.3180122569   -33.6513455902   -28.4846789235   -23.4846789235   -18.4846789235   -16.8180122569   -16.9846789235   -15.1513455902   -10.4846789235    -5.6513455902    -1.8180122569     1.6819877431     5.3486544098     9.5153210765    13.0153210765    14.1819877431    11.3486544098     9.5153210765     9.1819877431    10.8486544098     8.6819877431     5.5153210765     7.0247801759     8.7009059419     8.0436983746     5.5531574740     3.8959499067     3.2387423395     3.5815347722     3.5909938716 
   14.8162256081    14.3883988238    16.7939053729    19.5327452553    19.4382518043    17.6770916867    16.9159315691    16.6547714515    13.4881047848     9.3214381181     3.8214381181    -0.0118952152    -0.6785618819    -0.8452285485    -1.5118952152    -3.1785618819    -1.5118952152     2.1547714515     1.4881047848    -0.5118952152    -2.6785618819    -3.1785618819    -3.1785618819     0.1547714515    -0.0118952152    -2.1785618819    -0.8452285485     1.6547714515     2.6547714515     0.1547714515    -4.3452285485    -7.1785618819    -8.0118952152    -9.8452285485   -12.3452285485   -16.8452285485   -17.3452285485   -14.6785618819   -12.6785618819   -16.1785618819   -19.3452285485   -19.0118952152   -16.0118952152   -12.8452285485   -12.3452285485   -13.3452285485   -13.3452285485   -10.1785618819    -9.3452285485   -10.8452285485   -11.8452285485   -10.3452285485    -8.0118952152    -7.1785618819    -5.6785618819    -4.1785618819    -1.6785618819     1.3214381181     0.9881047848    -0.6785618819    -0.8452285485     3.6547714515    10.8214381181    12.9881047848    14.6547714515    15.6547714515    17.9881047848    23.6547714515    27.6547714515    27.1547714515    21.6547714515    18.1547714515    18.6547714515    18.3214381181    17.9881047848    16.4881047848    14.6547714515    12.4881047848     9.3214381181     6.4881047848     1.9881047848    -0.1785618819     1.4881047848    -0.3452285485    -3.6785618819    -7.6785618819    -7.8452285485    -7.6785618819    -8.3452285485    -9.5118952152   -11.8452285485   -14.1785618819   -14.5118952152   -14.8452285485   -18.0118952152   -21.8452285485   -22.5118952152   -20.8452285485   -22.1785618819   -23.3452285485   -24.5118952152   -23.8452285485   -19.5118952152   -15.5118952152   -15.3452285485   -18.1785618819   -19.1785618819   -15.6785618819   -11.0118952152    -9.5118952152    -9.3452285485    -6.1785618819    -3.6785618819    -3.8452285485    -6.0118952152    -9.8452285485   -11.8452285485    -9.8452285485    -9.6785618819    -9.3452285485    -8.0118952152    -3.6785618819     2.4881047848     8.1547714515     7.9881047848     5.3214381181     5.1547714515     6.3214381181     8.1547714515     7.8214381181     5.8214381181     6.4881047848     9.1547714515    10.1547714515     7.4881047848     3.8214381181     1.8214381181     1.8214381181     1.8214381181    -3.5118952152    -9.8452285485   -10.6785618819    -7.0118952152    -3.3452285485    -2.0118952152    -0.0118952152     4.9881047848    10.6547714515    13.3214381181    13.4881047848    12.8214381181    11.6547714515    11.1547714515    12.6547714515    11.8214381181    11.3214381181    16.8214381181    21.9881047848    22.8214381181    20.9881047848    18.8214381181    19.3214381181    21.8214381181    22.1547714515    19.1547714515    13.4881047848    13.3214381181    19.3214381181    23.3214381181    23.1547714515    21.3214381181    22.1547714515    23.6547714515    22.9881047848    20.6547714515    16.6547714515    13.6547714515    12.6547714515    10.9881047848     8.8214381181     7.4881047848     9.4881047848     9.3214381181     6.3214381181    -1.5118952152   -16.8452285485   -33.6785618819   -51.6785618819   -72.5118952152   -98.8452285485  -155.1785618819  -235.5118952152  -325.6785618819  -366.6785618819  -394.8452285485  -457.1785618819  -529.5118952152  -562.3452285485  -550.5118952152  -547.0118952152  -526.3452285485  -507.3452285485  -511.0118952152  -491.0118952152  -481.1785618819  -444.1785618819  -383.8452285485  -294.8452285485  -194.6785618819  -142.1785618819  -105.1785618819   -33.0118952152    82.9881047848   173.6547714515   201.9881047848   195.8214381181   188.1547714515   194.6547714515   214.8214381181   191.4881047848   178.8214381181   152.6547714515   149.4881047848   173.8214381181   225.3214381181   236.6547714515   209.3214381181   212.9881047848   199.1547714515   175.1547714515   176.1547714515   244.4881047848   300.4881047848   344.1547714515   374.3214381181   425.1547714515   471.6547714515   507.8214381181   532.9881047848   527.3214381181   492.6547714515   492.9881047848   528.3214381181   533.1547714515   521.9881047848   504.4881047848   478.4881047848   431.3214381181   386.4881047848   350.1547714515   338.1547714515   317.1547714515   297.3214381181   285.6547714515   277.8214381181   267.9881047848   258.9881047848   253.8214381181   253.6547714515   250.4881047848   246.4881047848   244.1547714515   241.6547714515   230.8214381181   212.3214381181   189.6547714515   175.3214381181   172.9881047848   172.1547714515   161.6547714515   141.9881047848   127.3214381181   112.1547714515    91.8214381181    69.1547714515    45.1547714515    27.8214381181    15.1547714515     1.6547714515   -12.8452285485   -24.0118952152   -30.5118952152   -42.5118952152   -53.0118952152   -62.8452285485   -70.8452285485   -75.1785618819   -82.1785618819   -89.6785618819   -94.3452285485   -97.8452285485   -97.5118952152   -97.3452285485   -97.6785618819   -99.1785618819  -100.3452285485   -97.3452285485   -96.0118952152   -96.0118952152   -98.8452285485  -101.1785618819   -98.8452285485   -96.8452285485   -93.8452285485   -91.8452285485   -92.0118952152   -89.5118952152   -84.6785618819   -80.3452285485   -79.1785618819   -78.0118952152   -74.1785618819   -69.0118952152   -62.1785618819   -56.6785618819   -55.0118952152   -53.3452285485   -49.8452285485   -47.5118952152   -48.6785618819   -48.3452285485   -45.0118952152   -41.0118952152   -39.3452285485   -43.8452285485   -51.3452285485   -57.5118952152   -60.3452285485   -61.0118952152   -64.8452285485   -68.1785618819   -68.1785618819   -65.6785618819   -66.8452285485   -71.3452285485   -74.3452285485   -76.5118952152   -77.6785618819   -80.6785618819   -82.3452285485   -81.1785618819   -75.5118952152   -67.1785618819   -60.6785618819   -60.5118952152   -61.1785618819   -61.6785618819   -62.6785618819   -63.0118952152   -62.6785618819   -60.3452285485   -56.3452285485   -49.1785618819   -48.0118952152   -47.1785618819   -48.5118952152   -46.8452285485   -43.5118952152   -39.8452285485   -37.8452285485   -37.0118952152   -37.0118952152   -32.5118952152   -26.5118952152   -26.5118952152   -28.3452285485   -28.8452285485   -28.8452285485   -31.3452285485   -31.8452285485   -33.1785618819   -34.8452285485   -36.0118952152   -38.1785618819   -45.0118952152   -50.3452285485   -49.8452285485   -44.1785618819   -42.5118952152   -45.6785618819   -47.0118952152   -47.6785618819   -46.5118952152   -46.5118952152   -49.1785618819   -52.0118952152   -52.5118952152   -49.5118952152   -48.6785618819   -50.8452285485   -53.0118952152   -55.6785618819   -59.0118952152   -60.8452285485   -62.3452285485   -64.6785618819   -66.3452285485   -66.8452285485   -69.0118952152   -70.8452285485   -70.8452285485   -67.5118952152   -63.5118952152   -61.0118952152   -61.8452285485   -64.3452285485   -62.3452285485   -55.5118952152   -50.0118952152   -49.0118952152   -48.5118952152   -44.6785618819   -41.3452285485   -38.0118952152   -35.6785618819   -34.6785618819   -31.6785618819   -26.6785618819   -23.0118952152   -22.6785618819   -21.8452285485   -19.0118952152   -15.6785618819   -16.5118952152   -19.0118952152   -21.6785618819   -23.1785618819   -22.8452285485   -21.8452285485   -21.6785618819   -22.1785618819   -21.6785618819   -20.3452285485   -21.5118952152   -25.8452285485   -30.0118952152   -31.8452285485   -30.5118952152   -30.6785618819   -33.5118952152   -36.8452285485   -37.5118952152   -36.6785618819   -36.3452285485   -37.8452285485   -42.1785618819   -43.6785618819   -40.6785618819   -36.3452285485   -35.8452285485   -35.3452285485   -34.1785618819   -31.1785618819   -29.3452285485   -29.3452285485   -28.1785618819   -25.1785618819   -21.6785618819   -21.1785618819   -23.1785618819   -26.0118952152   -25.3452285485   -23.8452285485   -25.3452285485   -33.1785618819   -41.0118952152   -46.8452285485   -47.8452285485   -49.3452285485   -52.1785618819   -54.5118952152   -55.3452285485   -51.6785618819   -50.5840684309   -48.3229083133   -44.5617481957   -38.4672547447   -33.2060946271   -30.7782678428   -29.6837743919   -26.5892809409 
   -8.6197540764   -11.7812082331   -16.7759957231   -20.6041165464   -23.0989040363   -22.4270248597   -21.9218123496   -23.9165998396   -26.0832665063   -25.9165998396   -24.5832665063   -25.7499331729   -28.4165998396   -28.5832665063   -26.5832665063   -22.7499331729   -17.9165998396   -14.9165998396   -11.5832665063    -7.5832665063    -3.4165998396    -3.2499331729    -5.4165998396    -5.9165998396    -5.5832665063    -5.9165998396    -8.5832665063   -11.0832665063   -12.9165998396   -10.4165998396    -6.7499331729    -5.5832665063    -6.7499331729    -5.4165998396    -1.5832665063     1.0834001604     1.5834001604    -1.2499331729    -3.4165998396    -3.4165998396    -1.2499331729    -1.2499331729    -3.2499331729    -3.9165998396    -1.5832665063     0.5834001604     0.4167334937    -3.2499331729    -7.5832665063   -11.2499331729   -15.0832665063   -20.0832665063   -25.5832665063   -26.4165998396   -22.9165998396   -17.9165998396   -15.0832665063   -13.0832665063   -11.5832665063    -9.0832665063    -4.2499331729    -3.4165998396    -5.2499331729    -3.9165998396     2.5834001604     9.5834001604    14.5834001604    16.9167334937    19.7500668271    23.2500668271    25.9167334937    25.2500668271    20.9167334937    17.9167334937    18.5834001604    20.9167334937    17.2500668271    14.4167334937    14.4167334937    15.5834001604    14.2500668271    11.7500668271     9.4167334937     8.7500668271     8.9167334937    10.4167334937    10.2500668271     9.2500668271    11.2500668271    15.0834001604    18.0834001604    17.5834001604    15.0834001604    11.2500668271     9.4167334937     9.5834001604     8.0834001604     5.0834001604     4.5834001604     5.2500668271     5.9167334937     2.9167334937    -1.9165998396    -4.9165998396    -4.9165998396    -3.7499331729    -4.4165998396    -6.0832665063    -4.5832665063    -1.0832665063     2.5834001604     3.4167334937     3.2500668271     3.2500668271     3.5834001604     5.0834001604     5.4167334937     6.2500668271     8.0834001604    11.2500668271    14.0834001604    14.2500668271    10.5834001604     9.7500668271    10.5834001604    11.9167334937    10.2500668271     6.4167334937     4.9167334937     4.7500668271     2.5834001604    -1.7499331729    -5.9165998396    -8.9165998396    -9.7499331729   -11.9165998396   -19.4165998396   -28.2499331729   -28.7499331729   -23.7499331729   -23.5832665063   -23.4165998396   -29.4165998396   -35.7499331729   -54.2499331729   -73.4165998396   -78.9165998396   -92.9165998396  -108.9165998396  -105.4165998396  -103.7499331729  -114.2499331729  -146.9165998396  -208.4165998396  -265.4165998396  -322.2499331729  -368.7499331729  -411.4165998396  -424.4165998396  -405.7499331729  -373.4165998396  -359.7499331729  -393.2499331729  -390.4165998396  -358.0832665063  -350.5832665063  -333.4165998396  -321.4165998396  -282.5832665063  -208.9165998396  -153.7499331729  -111.7499331729   -77.9165998396   -53.0832665063   -36.7499331729   -56.4165998396   -66.4165998396   -40.5832665063    30.5834001604    45.7500668271     3.5834001604   -14.2499331729     0.4167334937    20.2500668271    35.2500668271    50.7500668271    75.5834001604   117.7500668271   145.4167334937   189.0834001604   226.2500668271   279.7500668271   324.9167334937   361.9167334937   381.2500668271   422.9167334937   488.7500668271   528.5834001604   524.4167334937   531.9167334937   537.7500668271   535.9167334937   530.7500668271   513.4167334937   502.0834001604   489.2500668271   463.4167334937   428.4167334937   387.2500668271   335.2500668271   294.5834001604   258.4167334937   211.9167334937   186.5834001604   172.0834001604   152.5834001604   129.9167334937   118.0834001604   117.7500668271   120.0834001604   131.9167334937   130.0834001604   131.0834001604   132.0834001604   138.2500668271   146.5834001604   144.7500668271   139.2500668271   149.4167334937   145.5834001604   138.0834001604   136.2500668271   142.7500668271   139.2500668271   128.5834001604   117.2500668271   103.9167334937    89.4167334937    75.9167334937    65.7500668271    54.0834001604    38.9167334937    24.5834001604    15.2500668271    12.2500668271    11.4167334937     4.2500668271    -9.2499331729   -24.7499331729   -36.7499331729   -48.5832665063   -62.9165998396   -72.5832665063   -77.4165998396   -76.7499331729   -78.7499331729   -80.4165998396   -83.4165998396   -81.5832665063   -76.0832665063   -74.4165998396   -77.2499331729   -81.5832665063   -78.4165998396   -73.0832665063   -67.2499331729   -63.0832665063   -59.0832665063   -59.5832665063   -58.7499331729   -60.7499331729   -64.5832665063   -70.4165998396   -70.0832665063   -67.9165998396   -68.2499331729   -70.2499331729   -73.9165998396   -76.0832665063   -78.7499331729   -81.2499331729   -85.0832665063   -89.4165998396   -93.4165998396   -93.0832665063   -92.9165998396   -94.7499331729   -97.4165998396   -97.4165998396   -96.7499331729   -98.5832665063  -101.5832665063  -107.2499331729  -111.2499331729  -112.5832665063  -112.2499331729  -112.0832665063  -115.0832665063  -115.9165998396  -114.2499331729  -112.4165998396  -110.2499331729  -111.2499331729  -111.0832665063  -110.0832665063  -106.9165998396  -105.0832665063  -103.9165998396  -100.4165998396   -94.0832665063   -87.4165998396   -84.9165998396   -86.4165998396   -84.2499331729   -78.0832665063   -70.5832665063   -67.5832665063   -67.7499331729   -67.5832665063   -64.7499331729   -60.7499331729   -60.4165998396   -60.0832665063   -59.5832665063   -57.0832665063   -55.0832665063   -54.5832665063   -55.9165998396   -54.0832665063   -52.4165998396   -51.2499331729   -54.7499331729   -59.4165998396   -63.9165998396   -63.9165998396   -63.5832665063   -66.4165998396   -73.5832665063   -79.7499331729   -78.7499331729   -75.9165998396   -74.4165998396   -74.5832665063   -73.5832665063   -71.7499331729   -69.4165998396   -71.0832665063   -70.2499331729   -65.2499331729   -56.9165998396   -48.5832665063   -44.4165998396   -41.4165998396   -33.4165998396   -25.7499331729   -23.2499331729   -23.0832665063   -25.5832665063   -27.2499331729   -22.2499331729   -16.2499331729   -12.5832665063   -13.0832665063   -12.4165998396    -9.9165998396    -9.5832665063   -11.7499331729   -13.5832665063   -14.9165998396   -15.5832665063   -15.9165998396   -18.2499331729   -21.9165998396   -22.2499331729   -21.9165998396   -25.2499331729   -30.9165998396   -36.2499331729   -37.7499331729   -39.0832665063   -41.4165998396   -43.2499331729   -44.2499331729   -44.4165998396   -43.2499331729   -42.4165998396   -42.4165998396   -43.7499331729   -46.0832665063   -46.0832665063   -43.5832665063   -43.4165998396   -45.9165998396   -47.9165998396   -47.2499331729   -45.5832665063   -46.7499331729   -52.2499331729   -56.9165998396   -57.9165998396   -57.4165998396   -58.4165998396   -60.4165998396   -60.4165998396   -58.2499331729   -57.0832665063   -60.0832665063   -63.9165998396   -63.9165998396   -61.4165998396   -60.0832665063   -59.2499331729   -57.2499331729   -51.7499331729   -43.9165998396   -38.2499331729   -34.7499331729   -33.9165998396   -31.9165998396   -27.0832665063   -20.4165998396   -16.9165998396   -15.2499331729   -12.9165998396    -9.2499331729    -7.0832665063    -4.9165998396    -6.0832665063    -8.0832665063    -8.0832665063    -9.9165998396   -13.2499331729   -17.5832665063   -20.0832665063   -20.7499331729   -19.4165998396   -21.5832665063   -23.5832665063   -22.9165998396   -21.0832665063   -21.2499331729   -23.4165998396   -26.7499331729   -28.0832665063   -26.2499331729   -24.9165998396   -26.2499331729   -27.0832665063   -27.9165998396   -25.5832665063   -20.9165998396   -20.5832665063   -23.2499331729   -23.7499331729   -21.2499331729   -16.9165998396   -15.2499331729   -14.7499331729   -12.9165998396    -9.0832665063    -7.4165998396    -8.5832665063   -12.2499331729   -13.2499331729    -9.7499331729    -6.7499331729    -8.9165998396   -11.5832665063    -9.2499331729    -4.9165998396    -2.4165998396    -1.9165998396    -2.0832665063     0.9115209837     3.0729751403     2.9010959637     2.2292167870     3.0573376103     8.5521251002    11.5469125902    11.3750334135 
    0.5251798561     1.5835331735     2.1418864908     3.7002398082     6.4252597922     7.6502797762     5.2086330935     0.9336530775    -4.3996802558    -7.3996802558    -8.7330135891   -10.7330135891   -12.5663469225   -11.2330135891   -10.3996802558   -12.5663469225   -17.7330135891   -20.5663469225   -21.2330135891   -21.5663469225   -23.5663469225   -26.3996802558   -26.2330135891   -22.0663469225   -15.8996802558   -11.7330135891   -10.0663469225    -9.3996802558    -6.0663469225    -4.8996802558    -5.2330135891    -6.2330135891    -5.0663469225    -2.0663469225     1.7669864109     2.7669864109     1.4336530775     0.2669864109     1.2669864109     4.6003197442     5.9336530775     4.1003197442    -0.0663469225     1.9336530775     7.6003197442    11.9336530775    13.4336530775    14.6003197442    17.2669864109    17.2669864109    15.7669864109    15.1003197442    14.4336530775    16.4336530775    19.6003197442    18.4336530775    14.4336530775    11.4336530775    13.2669864109    13.9336530775    10.7669864109     7.6003197442     5.1003197442     5.9336530775     7.6003197442     9.4336530775     7.2669864109     4.6003197442     5.4336530775     6.6003197442     4.9336530775     1.7669864109     1.2669864109     5.6003197442    11.6003197442    14.2669864109    13.1003197442     8.9336530775     9.1003197442     9.2669864109     7.2669864109     2.9336530775    -0.0663469225    -0.3996802558     1.4336530775     0.9336530775    -2.2330135891    -4.7330135891    -6.2330135891    -9.2330135891   -15.0663469225   -20.8996802558   -23.7330135891   -21.7330135891   -21.2330135891   -22.3996802558   -25.2330135891   -28.0663469225   -26.5663469225   -24.3996802558   -26.2330135891   -27.3996802558   -26.8996802558   -26.8996802558   -24.5663469225   -24.2330135891   -26.0663469225   -28.3996802558   -25.2330135891   -20.7330135891   -17.7330135891   -17.5663469225   -18.3996802558   -14.7330135891   -11.5663469225    -8.3996802558    -6.8996802558    -6.7330135891    -3.7330135891     4.2669864109     7.9336530775     8.4336530775     8.7669864109    12.4336530775    12.1003197442     9.6003197442     5.4336530775     3.2669864109     7.1003197442    10.4336530775    11.2669864109     7.6003197442     6.7669864109     9.9336530775    12.7669864109    11.1003197442     7.7669864109     6.6003197442     8.9336530775    11.9336530775    13.9336530775    13.7669864109    15.4336530775    19.2669864109    19.6003197442    16.6003197442    13.2669864109    10.2669864109     8.9336530775     7.6003197442     5.9336530775     2.7669864109    -1.2330135891    -3.7330135891    -3.7330135891    -5.2330135891    -9.5663469225   -13.2330135891   -15.5663469225   -15.0663469225   -13.3996802558   -11.3996802558   -10.0663469225    -6.5663469225    -3.3996802558    -2.8996802558    -6.7330135891    -9.0663469225    -6.3996802558    -1.3996802558     1.7669864109     2.7669864109     3.7669864109     6.7669864109    10.7669864109     8.6003197442     2.9336530775    -2.8996802558    -7.8996802558   -19.0663469225   -39.8996802558   -68.5663469225   -98.2330135891  -144.2330135891  -203.0663469225  -295.8996802558  -422.3996802558  -499.7330135891  -580.3996802558  -659.2330135891  -712.8996802558  -736.8996802558  -720.2330135891  -755.5663469225  -890.0663469225 -1002.7330135891  -989.2330135891  -880.7330135891  -731.8996802558  -544.5663469225  -384.7330135891  -226.2330135891   -60.0663469225    20.2669864109   118.1003197442   225.2669864109   307.4336530775   374.9336530775   397.4336530775   460.4336530775   622.7669864109   754.1003197442   734.9336530775   666.6003197442   566.6003197442   466.7669864109   412.7669864109   361.7669864109   280.7669864109   223.1003197442   163.4336530775   148.2669864109   158.7669864109   157.2669864109   179.2669864109   204.1003197442   212.6003197442   243.7669864109   317.6003197442   360.9336530775   384.1003197442   386.1003197442   378.2669864109   379.7669864109   437.7669864109   529.2669864109   611.7669864109   627.1003197442   613.7669864109   592.2669864109   557.9336530775   532.6003197442   520.7669864109   500.7669864109   461.2669864109   417.1003197442   393.7669864109   372.9336530775   354.6003197442   360.1003197442   364.4336530775   337.4336530775   308.4336530775   291.6003197442   283.4336530775   281.9336530775   271.7669864109   261.4336530775   254.6003197442   250.9336530775   248.7669864109   239.2669864109   229.4336530775   219.6003197442   210.2669864109   194.7669864109   174.1003197442   162.6003197442   152.1003197442   139.6003197442   118.1003197442    93.7669864109    75.2669864109    60.9336530775    45.4336530775    22.7669864109     8.1003197442    -4.3996802558   -19.3996802558   -35.5663469225   -52.2330135891   -68.0663469225   -79.7330135891   -87.3996802558   -92.7330135891   -98.5663469225  -107.3996802558  -115.5663469225  -121.8996802558  -130.0663469225  -139.0663469225  -145.0663469225  -153.0663469225  -158.0663469225  -164.0663469225  -170.0663469225  -176.3996802558  -181.5663469225  -185.7330135891  -188.0663469225  -191.5663469225  -195.7330135891  -197.8996802558  -195.3996802558  -194.7330135891  -193.2330135891  -191.2330135891  -187.2330135891  -180.3996802558  -171.8996802558  -164.7330135891  -161.2330135891  -156.5663469225  -150.3996802558  -144.2330135891  -140.3996802558  -138.5663469225  -135.5663469225  -126.8996802558  -119.3996802558  -113.7330135891  -112.2330135891  -110.8996802558  -109.0663469225  -106.5663469225  -105.0663469225  -106.8996802558  -107.2330135891  -107.7330135891  -108.0663469225  -107.3996802558  -109.3996802558  -110.8996802558  -112.0663469225  -115.8996802558  -119.8996802558  -122.2330135891  -122.0663469225  -116.0663469225  -111.0663469225  -108.7330135891  -107.3996802558  -102.7330135891   -96.2330135891   -90.0663469225   -85.3996802558   -83.7330135891   -77.8996802558   -69.8996802558   -59.8996802558   -53.3996802558   -50.8996802558   -50.7330135891   -47.7330135891   -49.5663469225   -52.2330135891   -55.8996802558   -59.3996802558   -62.5663469225   -64.5663469225   -65.7330135891   -67.8996802558   -70.0663469225   -71.2330135891   -69.7330135891   -70.3996802558   -71.5663469225   -71.0663469225   -68.3996802558   -67.5663469225   -68.5663469225   -70.3996802558   -70.2330135891   -67.2330135891   -61.7330135891   -59.5663469225   -62.2330135891   -65.2330135891   -64.0663469225   -61.7330135891   -63.2330135891   -66.5663469225   -68.5663469225   -65.7330135891   -61.5663469225   -61.2330135891   -61.5663469225   -61.7330135891   -61.7330135891   -61.7330135891   -64.0663469225   -67.0663469225   -67.2330135891   -63.0663469225   -58.7330135891   -58.2330135891   -60.2330135891   -62.0663469225   -61.0663469225   -59.8996802558   -61.2330135891   -61.8996802558   -60.8996802558   -57.5663469225   -51.8996802558   -46.7330135891   -43.3996802558   -41.5663469225   -39.7330135891   -39.2330135891   -42.3996802558   -46.0663469225   -48.2330135891   -47.3996802558   -44.8996802558   -45.3996802558   -47.2330135891   -49.2330135891   -48.5663469225   -46.7330135891   -46.0663469225   -49.8996802558   -53.5663469225   -53.8996802558   -50.7330135891   -47.8996802558   -47.8996802558   -49.2330135891   -48.7330135891   -47.5663469225   -48.2330135891   -51.3996802558   -54.3996802558   -54.5663469225   -52.3996802558   -52.7330135891   -57.2330135891   -59.3996802558   -58.5663469225   -56.3996802558   -57.8996802558   -62.2330135891   -63.7330135891   -60.8996802558   -56.5663469225   -54.0663469225   -55.5663469225   -54.5663469225   -49.7330135891   -43.8996802558   -42.8996802558   -42.7330135891   -40.8996802558   -37.8996802558   -33.5663469225   -30.3996802558   -28.8996802558   -26.3996802558   -22.7330135891   -20.2330135891   -18.2330135891   -16.3996802558   -12.2330135891    -5.8996802558    -0.0663469225     3.2669864109     5.4336530775     7.2669864109    11.2669864109    15.4336530775    15.4336530775    12.9336530775    11.9336530775    14.2086330935    15.8169464428    16.7585931255    16.0335731415    14.8085531575    14.2501998401    11.1918465228     6.6334932054 
  -17.3317294841   -18.7759957231   -21.5535952954   -23.1645282010   -21.4421277733   -19.8863940123   -19.6639935846   -21.2749264902   -18.6082598236   -15.6082598236   -15.4415931569   -20.9415931569   -24.1082598236   -22.9415931569   -21.2749264902   -21.9415931569   -23.1082598236   -22.9415931569   -22.9415931569   -20.7749264902   -19.7749264902   -20.6082598236   -20.7749264902   -17.6082598236   -13.7749264902   -11.9415931569   -12.2749264902    -8.7749264902    -3.7749264902    -0.1082598236     2.3917401764     1.2250735098    -2.2749264902    -4.2749264902    -3.2749264902    -6.1082598236   -12.2749264902   -13.9415931569   -14.1082598236   -12.6082598236   -10.7749264902   -12.6082598236   -14.7749264902   -14.6082598236   -10.9415931569    -7.7749264902    -7.2749264902    -4.4415931569     0.8917401764     6.8917401764    11.2250735098    12.8917401764    13.3917401764    11.7250735098    12.0584068431     8.5584068431     1.0584068431    -1.9415931569     0.5584068431     3.8917401764     1.3917401764    -5.9415931569   -10.7749264902   -11.1082598236    -8.2749264902    -6.2749264902    -7.1082598236    -5.7749264902    -0.4415931569     5.7250735098     8.2250735098     8.8917401764    12.2250735098    16.3917401764    20.2250735098    20.3917401764    19.7250735098    22.3917401764    25.7250735098    29.3917401764    28.2250735098    24.0584068431    22.3917401764    23.2250735098    22.8917401764    20.2250735098    15.5584068431    13.8917401764    13.8917401764    14.7250735098    13.0584068431    10.0584068431     7.8917401764     7.3917401764     7.0584068431     1.5584068431    -4.7749264902    -8.9415931569   -10.1082598236   -11.6082598236   -14.6082598236   -17.6082598236   -18.9415931569   -20.4415931569   -21.9415931569   -24.2749264902   -27.9415931569   -28.4415931569   -25.4415931569   -24.4415931569   -25.7749264902   -27.1082598236   -25.9415931569   -23.7749264902   -20.9415931569   -18.4415931569   -15.1082598236   -13.2749264902    -9.6082598236    -5.6082598236    -3.6082598236    -4.4415931569    -3.6082598236    -0.7749264902     2.2250735098     4.2250735098     4.2250735098     3.3917401764     3.5584068431     3.5584068431     1.5584068431    -3.2749264902    -9.1082598236   -10.4415931569   -10.6082598236   -12.7749264902   -15.6082598236   -18.6082598236   -20.4415931569   -21.1082598236   -22.4415931569   -24.2749264902   -24.6082598236   -21.6082598236   -17.1082598236   -15.4415931569   -17.1082598236   -19.6082598236   -20.4415931569   -21.4415931569   -23.7749264902   -26.1082598236   -28.6082598236   -27.7749264902   -27.1082598236   -29.1082598236   -33.9415931569   -36.7749264902   -37.6082598236   -36.7749264902   -38.6082598236   -39.9415931569   -39.7749264902   -35.1082598236   -28.7749264902   -25.6082598236   -25.7749264902   -26.2749264902   -21.7749264902   -18.1082598236   -17.4415931569   -19.1082598236   -19.4415931569   -20.4415931569   -38.7749264902   -59.1082598236   -74.7749264902   -88.6082598236   -98.2749264902  -105.2749264902  -121.9415931569  -138.1082598236  -152.6082598236  -178.2749264902  -194.2749264902  -210.6082598236  -248.1082598236  -317.6082598236  -392.9415931569  -452.1082598236  -465.6082598236  -443.2749264902  -443.7749264902  -440.7749264902  -416.6082598236  -406.4415931569  -443.6082598236  -489.7749264902  -486.1082598236  -440.6082598236  -390.2749264902  -356.7749264902  -329.1082598236  -257.2749264902  -178.1082598236   -81.9415931569    -6.7749264902    22.0584068431    69.0584068431   130.2250735098   156.8917401764   189.3917401764   263.5584068431   332.2250735098   332.0584068431   286.3917401764   252.8917401764   213.2250735098   231.0584068431   223.2250735098   240.0584068431   221.2250735098   184.5584068431   176.5584068431   186.5584068431   187.3917401764   190.5584068431   188.2250735098   207.0584068431   241.7250735098   296.0584068431   363.0584068431   388.8917401764   439.2250735098   464.8917401764   499.7250735098   506.3917401764   514.3917401764   530.3917401764   528.2250735098   512.3917401764   480.5584068431   451.0584068431   431.7250735098   407.2250735098   382.3917401764   356.8917401764   329.8917401764   315.5584068431   303.5584068431   287.2250735098   274.5584068431   256.3917401764   242.2250735098   234.8917401764   231.3917401764   218.0584068431   209.0584068431   204.3917401764   198.3917401764   191.3917401764   179.5584068431   164.8917401764   157.5584068431   151.7250735098   140.0584068431   126.2250735098   112.3917401764   105.0584068431    95.3917401764    78.7250735098    54.3917401764    36.8917401764    26.7250735098    17.5584068431     9.0584068431    -2.6082598236   -12.4415931569   -18.2749264902   -23.7749264902   -33.2749264902   -41.9415931569   -49.9415931569   -55.4415931569   -57.1082598236   -60.9415931569   -63.4415931569   -64.6082598236   -64.9415931569   -68.9415931569   -72.9415931569   -76.9415931569   -80.9415931569   -80.6082598236   -78.2749264902   -80.1082598236   -82.9415931569   -84.7749264902   -83.9415931569   -82.1082598236   -83.1082598236   -86.7749264902   -90.9415931569   -88.9415931569   -84.6082598236   -81.4415931569   -80.9415931569   -82.7749264902   -82.4415931569   -82.1082598236   -83.9415931569   -87.1082598236   -88.2749264902   -87.1082598236   -84.2749264902   -84.6082598236   -87.4415931569   -86.2749264902   -82.6082598236   -81.2749264902   -84.2749264902   -90.4415931569   -96.9415931569  -100.1082598236  -100.7749264902  -101.9415931569  -103.9415931569  -104.6082598236  -104.1082598236  -101.1082598236  -102.1082598236  -103.9415931569  -101.7749264902   -98.2749264902   -93.7749264902   -92.1082598236   -90.4415931569   -87.6082598236   -81.1082598236   -72.2749264902   -65.2749264902   -60.1082598236   -59.1082598236   -57.6082598236   -54.7749264902   -57.4415931569   -59.4415931569   -59.7749264902   -59.7749264902   -56.7749264902   -56.7749264902   -57.4415931569   -58.1082598236   -55.4415931569   -52.9415931569   -53.4415931569   -55.4415931569   -57.6082598236   -52.1082598236   -43.4415931569   -37.1082598236   -33.6082598236   -31.9415931569   -30.1082598236   -28.4415931569   -30.7749264902   -34.1082598236   -37.2749264902   -40.4415931569   -42.4415931569   -44.2749264902   -46.7749264902   -51.1082598236   -52.9415931569   -54.4415931569   -58.1082598236   -64.6082598236   -68.1082598236   -67.6082598236   -63.6082598236   -62.2749264902   -63.4415931569   -64.7749264902   -62.1082598236   -57.2749264902   -54.6082598236   -55.6082598236   -58.2749264902   -58.1082598236   -56.1082598236   -56.2749264902   -58.4415931569   -60.2749264902   -59.6082598236   -59.6082598236   -63.1082598236   -68.9415931569   -72.7749264902   -71.4415931569   -69.2749264902   -68.6082598236   -70.1082598236   -69.9415931569   -66.7749264902   -61.7749264902   -60.9415931569   -63.6082598236   -65.9415931569   -63.6082598236   -58.9415931569   -55.1082598236   -54.2749264902   -51.4415931569   -46.7749264902   -41.9415931569   -40.2749264902   -41.4415931569   -41.2749264902   -38.2749264902   -36.6082598236   -37.6082598236   -37.9415931569   -37.9415931569   -34.9415931569   -31.7749264902   -33.1082598236   -35.2749264902   -37.7749264902   -36.2749264902   -33.6082598236   -32.9415931569   -33.6082598236   -31.7749264902   -29.2749264902   -27.6082598236   -25.9415931569   -26.4415931569   -27.2749264902   -24.6082598236   -20.9415931569   -19.9415931569   -21.4415931569   -23.4415931569   -19.9415931569   -17.4415931569   -16.6082598236   -19.4415931569   -21.1082598236   -21.7749264902   -21.7749264902   -22.4415931569   -25.4415931569   -28.1082598236   -28.9415931569   -27.2749264902   -25.9415931569   -25.4415931569   -23.2749264902   -20.7749264902   -17.9415931569   -18.1082598236   -20.2749264902   -22.1082598236   -21.7749264902   -20.9415931569   -19.6082598236   -19.7749264902   -18.2749264902   -13.6082598236    -9.7749264902    -9.1082598236   -12.1082598236   -13.7749264902   -13.1639935846   -11.8863940123   -12.6087944400   -12.3311948677   -10.3869286287    -6.1093290564    -3.6650628174    -2.8874632451 
   -7.1892542101    -6.7658380112    -7.6757551457    -8.5856722801    -6.3289227479    -4.0721732157    -3.6487570168    -5.3920074846    -5.8920074846    -2.0586741513     0.6079925154    -1.7253408180    -4.3920074846    -4.8920074846    -0.2253408180     1.9413258487     0.4413258487    -3.7253408180    -7.2253408180    -8.8920074846   -11.5586741513   -17.0586741513   -22.5586741513   -27.7253408180   -31.2253408180   -36.3920074846   -42.8920074846   -49.0586741513   -52.3920074846   -52.5586741513   -54.3920074846   -55.7253408180   -56.5586741513   -51.8920074846   -44.8920074846   -39.0586741513   -38.2253408180   -37.8920074846   -34.7253408180   -28.0586741513   -21.7253408180   -17.5586741513   -13.7253408180    -8.0586741513    -2.5586741513     1.4413258487     2.9413258487     1.6079925154     1.4413258487     1.7746591820     1.1079925154    -0.2253408180    -0.5586741513     2.7746591820     7.9413258487    12.9413258487    14.7746591820    15.2746591820    15.1079925154    17.2746591820    18.7746591820    19.4413258487    18.9413258487    20.6079925154    23.2746591820    23.7746591820    22.7746591820    19.9413258487    17.7746591820    16.2746591820    12.2746591820     6.7746591820     2.2746591820     0.1079925154    -0.0586741513    -0.5586741513    -2.2253408180    -7.2253408180   -11.2253408180   -14.3920074846   -17.0586741513   -20.7253408180   -24.7253408180   -25.5586741513   -24.7253408180   -23.5586741513   -22.3920074846   -22.3920074846   -22.2253408180   -19.8920074846   -16.0586741513   -14.3920074846   -15.8920074846   -15.3920074846   -11.2253408180    -6.3920074846    -2.3920074846    -0.3920074846     2.2746591820     4.7746591820     8.2746591820     8.1079925154     4.1079925154     2.4413258487     3.1079925154     2.9413258487    -0.8920074846    -5.5586741513    -6.3920074846    -4.3920074846    -3.3920074846    -4.7253408180   -10.3920074846   -13.0586741513   -12.7253408180   -10.5586741513   -10.8920074846   -12.2253408180    -9.8920074846    -5.7253408180    -1.0586741513     1.1079925154     4.2746591820     8.1079925154    12.7746591820    18.9413258487    23.1079925154    25.1079925154    30.9413258487    36.9413258487    40.4413258487    41.1079925154    39.9413258487    41.1079925154    43.6079925154    42.1079925154    35.1079925154    26.7746591820    13.1079925154    -5.8920074846   -18.2253408180   -29.3920074846   -32.3920074846   -37.5586741513   -48.2253408180   -58.2253408180   -84.7253408180  -101.0586741513  -125.3920074846  -139.5586741513  -158.2253408180  -166.3920074846  -187.2253408180  -230.5586741513  -262.0586741513  -302.0586741513  -303.8920074846  -286.8920074846  -286.3920074846  -266.3920074846  -243.2253408180  -232.3920074846  -221.2253408180  -204.5586741513  -207.5586741513  -211.2253408180  -181.8920074846  -171.3920074846  -160.3920074846  -134.2253408180   -75.8920074846    13.4413258487    23.4413258487     9.9413258487    32.2746591820    42.9413258487    31.1079925154    22.7746591820    55.7746591820    86.7746591820   137.9413258487   148.6079925154   119.1079925154    94.2746591820    94.7746591820   151.9413258487   179.1079925154   179.4413258487   185.9413258487   195.1079925154   185.7746591820   190.2746591820   225.6079925154   275.6079925154   302.7746591820   313.6079925154   321.9413258487   355.7746591820   400.7746591820   446.9413258487   487.1079925154   474.4413258487   448.1079925154   429.9413258487   440.4413258487   446.1079925154   433.7746591820   403.9413258487   372.6079925154   340.7746591820   308.2746591820   273.7746591820   247.2746591820   223.1079925154   200.2746591820   185.1079925154   164.1079925154   144.9413258487   126.6079925154   120.1079925154   114.1079925154   109.1079925154   109.4413258487   108.2746591820   102.9413258487    90.4413258487    74.7746591820    59.6079925154    48.7746591820    47.2746591820    44.1079925154    34.4413258487    23.7746591820    16.6079925154    17.1079925154    12.1079925154     2.4413258487    -7.5586741513   -16.3920074846   -22.0586741513   -28.0586741513   -36.0586741513   -45.0586741513   -48.8920074846   -49.7253408180   -53.2253408180   -57.8920074846   -64.0586741513   -69.2253408180   -70.8920074846   -70.3920074846   -76.0586741513   -81.5586741513   -86.2253408180   -88.5586741513   -90.3920074846   -93.5586741513   -96.5586741513   -95.7253408180   -93.8920074846   -91.2253408180   -91.0586741513   -93.2253408180   -93.0586741513   -87.3920074846   -82.0586741513   -82.7253408180   -83.8920074846   -84.0586741513   -82.5586741513   -79.2253408180   -79.8920074846   -81.7253408180   -81.3920074846   -80.8920074846   -78.5586741513   -80.3920074846   -82.7253408180   -82.0586741513   -78.0586741513   -75.3920074846   -76.5586741513   -79.5586741513   -80.0586741513   -75.7253408180   -71.0586741513   -68.5586741513   -64.2253408180   -58.7253408180   -52.5586741513   -45.5586741513   -44.0586741513   -45.0586741513   -46.0586741513   -45.8920074846   -46.2253408180   -49.3920074846   -52.8920074846   -53.8920074846   -51.0586741513   -51.7253408180   -54.7253408180   -60.7253408180   -66.2253408180   -67.7253408180   -67.2253408180   -70.2253408180   -73.3920074846   -74.8920074846   -73.0586741513   -71.0586741513   -73.3920074846   -76.3920074846   -77.7253408180   -76.7253408180   -76.8920074846   -76.8920074846   -77.5586741513   -75.8920074846   -72.2253408180   -69.5586741513   -70.2253408180   -72.0586741513   -71.0586741513   -65.5586741513   -63.0586741513   -63.0586741513   -61.8920074846   -61.2253408180   -57.8920074846   -55.8920074846   -57.5586741513   -62.8920074846   -66.5586741513   -65.8920074846   -64.8920074846   -65.7253408180   -67.7253408180   -66.7253408180   -64.2253408180   -63.3920074846   -63.2253408180   -64.8920074846   -64.3920074846   -60.0586741513   -57.3920074846   -55.0586741513   -52.2253408180   -46.8920074846   -38.8920074846   -33.0586741513   -30.8920074846   -31.5586741513   -29.8920074846   -25.8920074846   -22.3920074846   -20.8920074846   -20.3920074846   -17.7253408180   -16.3920074846   -16.3920074846   -19.3920074846   -24.3920074846   -29.0586741513   -30.3920074846   -33.0586741513   -35.3920074846   -36.7253408180   -35.5586741513   -33.7253408180   -32.7253408180   -33.5586741513   -35.8920074846   -37.2253408180   -36.3920074846   -34.3920074846   -34.5586741513   -36.3920074846   -36.0586741513   -33.3920074846   -30.3920074846   -28.2253408180   -30.2253408180   -30.2253408180   -27.5586741513   -25.7253408180   -28.0586741513   -31.8920074846   -32.7253408180   -30.7253408180   -28.3920074846   -28.0586741513   -29.2253408180   -26.2253408180   -21.5586741513   -17.5586741513   -17.5586741513   -18.7253408180   -16.7253408180   -13.2253408180   -11.3920074846   -11.2253408180   -12.0586741513   -10.3920074846    -7.5586741513    -5.7253408180    -6.3920074846    -8.2253408180    -6.7253408180    -3.8920074846    -1.7253408180    -2.7253408180    -6.0586741513    -8.3920074846    -7.8920074846    -8.3920074846   -12.0586741513   -14.3920074846   -13.3920074846   -10.5586741513    -7.7253408180    -6.8920074846    -7.8920074846    -6.8920074846    -4.0586741513    -1.5586741513    -2.5586741513    -1.3920074846     3.9413258487    10.4413258487    14.6079925154    15.1079925154    15.9413258487    16.4413258487    18.6079925154    18.2746591820    15.2746591820    11.4413258487     9.2746591820     9.6079925154     9.4413258487     7.2746591820     5.4413258487     1.7746591820     0.2746591820    -0.7253408180    -6.2253408180   -11.8920074846   -14.7253408180   -14.7253408180   -14.8920074846   -16.5586741513   -19.2253408180   -20.2253408180   -17.3920074846   -15.2253408180   -15.7253408180   -17.8920074846   -17.8920074846   -14.8920074846   -12.7253408180   -13.0586741513   -12.8920074846   -10.7253408180    -6.7253408180    -3.7253408180    -3.3920074846    -2.8920074846    -1.8920074846    -3.2253408180    -5.5586741513    -7.8920074846   -11.3920074846    -9.4820903502    -8.0721732157    -8.3289227479   -10.4190056135   -11.6757551457   -10.0991713446    -7.8559208768    -8.1126704090 
   -3.0700347501    -1.8370756482    -2.1041165464    -4.0378241112    -4.6381983427    -4.9052392408    -4.6722801390    -5.7726543705   -10.1059877038   -12.2726543705   -10.1059877038    -8.6059877038   -10.7726543705   -14.4393210372   -15.6059877038   -15.6059877038   -16.9393210372   -18.6059877038   -18.2726543705   -15.7726543705   -13.9393210372   -10.2726543705    -8.4393210372    -7.2726543705    -2.6059877038     2.5606789628     4.0606789628     1.7273456295     0.0606789628     2.8940122962     8.3940122962    12.0606789628    13.8940122962    15.3940122962    14.3940122962    13.5606789628    12.2273456295     6.8940122962     1.0606789628    -2.2726543705    -3.4393210372    -4.6059877038    -7.4393210372   -10.4393210372   -11.2726543705   -11.4393210372   -13.1059877038   -17.7726543705   -24.4393210372   -28.9393210372   -29.7726543705   -29.2726543705   -29.7726543705   -29.4393210372   -26.6059877038   -23.6059877038   -22.9393210372   -23.9393210372   -25.2726543705   -23.9393210372   -19.7726543705   -16.1059877038   -14.6059877038   -14.4393210372   -10.1059877038    -3.4393210372     2.7273456295     5.3940122962     4.5606789628     4.0606789628     6.2273456295     8.2273456295     8.0606789628     5.8940122962     4.8940122962     5.3940122962     3.7273456295    -1.9393210372    -8.7726543705    -9.4393210372    -9.2726543705   -11.7726543705   -18.1059877038   -23.9393210372   -24.4393210372   -19.9393210372   -18.4393210372   -18.2726543705   -18.1059877038   -14.4393210372    -8.1059877038    -1.1059877038     3.2273456295     6.2273456295    11.7273456295    15.0606789628    17.2273456295    17.7273456295    19.7273456295    22.3940122962    25.0606789628    24.7273456295    24.0606789628    22.2273456295    21.8940122962    22.8940122962    20.7273456295    15.0606789628    11.2273456295    11.8940122962    15.5606789628    19.3940122962    20.2273456295    21.8940122962    23.2273456295    25.3940122962    26.8940122962    26.0606789628    24.0606789628    24.3940122962    26.7273456295    26.3940122962    26.2273456295    26.0606789628    27.0606789628    27.5606789628    24.7273456295    18.8940122962    11.7273456295     4.7273456295     2.0606789628     0.7273456295    -2.7726543705    -6.1059877038    -9.9393210372   -10.9393210372   -12.6059877038   -14.7726543705   -17.7726543705   -20.6059877038   -22.9393210372   -23.9393210372   -30.7726543705   -41.1059877038   -53.9393210372   -59.1059877038   -63.6059877038   -73.9393210372  -111.9393210372  -153.7726543705  -189.9393210372  -210.7726543705  -252.7726543705  -278.4393210372  -306.7726543705  -326.4393210372  -333.7726543705  -338.6059877038  -334.4393210372  -333.9393210372  -304.6059877038  -264.2726543705  -224.6059877038  -210.4393210372  -151.1059877038   -87.1059877038   -21.4393210372   -17.4393210372    16.0606789628    50.8940122962    95.7273456295   112.8940122962   107.7273456295    63.2273456295    39.5606789628    40.5606789628     1.5606789628   -32.2726543705   -38.6059877038   -12.7726543705   -41.1059877038   -59.6059877038   -74.2726543705   -54.4393210372   -43.6059877038   -79.4393210372   -72.4393210372   -43.7726543705    -0.1059877038   100.3940122962   185.2273456295   251.5606789628   324.0606789628   365.5606789628   363.2273456295   354.8940122962   396.2273456295   423.5606789628   430.8940122962   448.0606789628   462.2273456295   494.0606789628   480.3940122962   472.0606789628   459.5606789628   424.8940122962   379.0606789628   325.7273456295   284.5606789628   252.7273456295   234.7273456295   221.2273456295   195.2273456295   168.3940122962   157.5606789628   150.0606789628   147.3940122962   151.0606789628   147.7273456295   139.0606789628   131.0606789628   125.2273456295   116.8940122962   113.3940122962   108.2273456295   105.3940122962   102.0606789628    94.8940122962    84.8940122962    81.3940122962    70.5606789628    57.2273456295    42.8940122962    36.7273456295    31.2273456295    22.7273456295     5.7273456295   -14.1059877038   -26.2726543705   -30.7726543705   -32.7726543705   -36.9393210372   -43.6059877038   -51.4393210372   -55.7726543705   -57.2726543705   -55.1059877038   -54.7726543705   -57.6059877038   -63.2726543705   -63.7726543705   -61.1059877038   -55.7726543705   -52.6059877038   -49.9393210372   -47.6059877038   -47.1059877038   -50.7726543705   -53.7726543705   -51.7726543705   -47.1059877038   -45.4393210372   -47.2726543705   -50.2726543705   -51.1059877038   -51.1059877038   -51.2726543705   -53.4393210372   -53.9393210372   -51.6059877038   -48.7726543705   -48.4393210372   -49.1059877038   -51.1059877038   -53.2726543705   -54.7726543705   -56.9393210372   -59.7726543705   -62.4393210372   -64.6059877038   -64.2726543705   -61.2726543705   -59.6059877038   -59.2726543705   -58.9393210372   -55.9393210372   -55.4393210372   -56.9393210372   -60.6059877038   -60.7726543705   -56.4393210372   -53.4393210372   -51.7726543705   -51.9393210372   -50.7726543705   -47.4393210372   -46.9393210372   -50.1059877038   -56.4393210372   -56.4393210372   -52.9393210372   -51.7726543705   -54.2726543705   -57.4393210372   -57.6059877038   -53.7726543705   -50.1059877038   -48.4393210372   -49.9393210372   -49.9393210372   -46.1059877038   -44.2726543705   -43.4393210372   -44.9393210372   -44.6059877038   -45.9393210372   -47.2726543705   -48.4393210372   -50.1059877038   -48.6059877038   -45.9393210372   -46.1059877038   -51.2726543705   -55.9393210372   -57.6059877038   -56.6059877038   -56.2726543705   -57.1059877038   -57.4393210372   -53.4393210372   -47.7726543705   -44.4393210372   -46.9393210372   -51.7726543705   -52.4393210372   -49.4393210372   -47.4393210372   -48.9393210372   -48.9393210372   -46.1059877038   -41.6059877038   -38.7726543705   -40.9393210372   -45.2726543705   -47.9393210372   -48.6059877038   -49.9393210372   -52.2726543705   -51.6059877038   -46.2726543705   -38.9393210372   -34.6059877038   -33.4393210372   -33.6059877038   -31.1059877038   -28.1059877038   -24.4393210372   -23.1059877038   -22.7726543705   -18.6059877038   -15.1059877038    -9.7726543705    -7.1059877038    -7.6059877038    -7.9393210372   -10.2726543705   -13.2726543705   -18.6059877038   -23.2726543705   -24.2726543705   -24.7726543705   -26.7726543705   -31.6059877038   -37.1059877038   -38.9393210372   -40.2726543705   -40.7726543705   -47.1059877038   -51.1059877038   -50.9393210372   -49.7726543705   -47.6059877038   -48.1059877038   -49.9393210372   -49.2726543705   -46.9393210372   -43.9393210372   -41.1059877038   -39.6059877038   -37.4393210372   -33.9393210372   -30.7726543705   -30.9393210372   -32.7726543705   -34.1059877038   -34.7726543705   -34.7726543705   -38.9393210372   -43.6059877038   -45.2726543705   -44.7726543705   -43.7726543705   -46.4393210372   -52.2726543705   -55.9393210372   -55.2726543705   -56.1059877038   -58.1059877038   -60.6059877038   -57.4393210372   -49.4393210372   -42.4393210372   -38.9393210372   -35.7726543705   -31.1059877038   -24.7726543705   -21.2726543705   -21.6059877038   -23.6059877038   -21.9393210372   -18.6059877038   -15.9393210372   -14.6059877038   -14.6059877038   -11.6059877038    -9.7726543705   -13.7726543705   -19.4393210372   -26.2726543705   -28.2726543705   -27.7726543705   -27.4393210372   -27.4393210372   -26.1059877038   -23.6059877038   -21.1059877038   -18.1059877038   -20.1059877038   -24.4393210372   -26.6059877038   -26.1059877038   -25.4393210372   -25.1059877038   -23.9393210372   -16.6059877038    -9.4393210372    -3.1059877038    -1.6059877038    -3.2726543705    -4.6059877038    -2.9393210372     0.0606789628    -0.2726543705     1.3940122962     7.5606789628    15.7273456295    20.8940122962    21.8940122962    22.0606789628    21.0606789628    19.3940122962    16.7273456295     9.8940122962     4.8940122962     4.7273456295     6.2273456295     8.5606789628     9.0606789628     8.8940122962     6.8940122962     4.8940122962     2.7273456295    -0.2726543705    -1.6722801390    -0.9052392408     1.1951349906     0.9621758888    -0.4374498797     0.8295910184     3.5966319166     5.5303394814 
    2.9011208967     4.6123565519     5.6569255404     4.0348278623     2.0793968508     1.2906325060     3.6685348279     6.3797704831     7.2131038164     6.8797704831     7.8797704831     6.8797704831     4.8797704831    -0.6202295169    -7.4535628503    -9.9535628503    -9.6202295169   -10.7868961836   -11.2868961836   -10.1202295169    -7.2868961836    -3.1202295169    -2.7868961836    -5.2868961836    -9.2868961836    -8.7868961836    -6.6202295169    -3.7868961836    -3.7868961836    -1.7868961836     4.3797704831    11.2131038164    15.3797704831    18.0464371497    17.5464371497    18.7131038164    19.5464371497    18.8797704831    15.7131038164    11.2131038164    10.7131038164    10.5464371497     9.7131038164     7.8797704831     6.8797704831     7.3797704831     7.3797704831     5.7131038164     0.8797704831    -5.1202295169    -6.1202295169    -5.6202295169    -5.6202295169    -8.1202295169    -9.6202295169    -5.9535628503    -1.9535628503     0.3797704831     0.5464371497    -1.9535628503    -3.9535628503    -3.6202295169    -3.2868961836    -5.9535628503    -7.7868961836    -5.7868961836    -2.6202295169    -0.4535628503    -2.2868961836    -4.9535628503    -4.2868961836    -2.9535628503    -4.1202295169    -8.1202295169   -12.4535628503   -12.2868961836    -7.6202295169    -5.1202295169    -7.2868961836    -9.1202295169    -8.9535628503    -8.2868961836    -9.6202295169   -13.7868961836   -15.4535628503   -13.9535628503   -10.2868961836    -9.1202295169    -9.9535628503    -9.4535628503    -6.2868961836    -1.4535628503     1.7131038164     2.7131038164     5.3797704831    12.0464371497    20.8797704831    27.5464371497    29.8797704831    30.5464371497    33.8797704831    37.8797704831    38.2131038164    35.2131038164    32.0464371497    30.8797704831    32.2131038164    30.7131038164    24.7131038164    18.3797704831    15.7131038164    12.8797704831     7.2131038164    -0.2868961836    -4.7868961836    -5.9535628503    -6.6202295169    -7.9535628503    -9.9535628503   -10.9535628503    -8.4535628503    -5.7868961836    -6.6202295169   -10.6202295169   -12.9535628503   -12.4535628503   -12.7868961836   -12.7868961836   -13.1202295169   -14.2868961836   -15.1202295169   -12.9535628503   -11.7868961836   -13.4535628503   -16.1202295169   -15.9535628503   -14.9535628503   -13.9535628503   -14.6202295169   -13.6202295169   -12.2868961836   -11.1202295169   -10.6202295169   -16.1202295169   -24.2868961836   -26.9535628503   -27.4535628503   -28.7868961836   -31.9535628503   -33.4535628503   -33.4535628503   -33.9535628503   -34.6202295169   -36.4535628503   -38.9535628503   -39.7868961836   -37.4535628503   -34.7868961836   -33.9535628503   -29.2868961836   -22.1202295169   -16.4535628503   -13.1202295169   -14.9535628503   -18.2868961836   -18.1202295169   -14.7868961836   -11.6202295169   -10.4535628503   -10.6202295169    -6.4535628503     0.7131038164     3.3797704831     0.0464371497    -0.4535628503     2.5464371497     8.0464371497     4.7131038164   -11.9535628503   -33.9535628503   -55.2868961836   -85.7868961836  -118.1202295169  -170.4535628503  -238.7868961836  -329.2868961836  -428.1202295169  -517.2868961836  -559.6202295169  -606.4535628503  -681.6202295169  -745.6202295169  -736.9535628503  -709.6202295169  -681.6202295169  -664.2868961836  -640.6202295169  -594.1202295169  -535.6202295169  -413.4535628503  -267.1202295169  -146.9535628503   -37.6202295169    58.3797704831   114.0464371497   210.0464371497   290.8797704831   369.8797704831   399.8797704831   401.0464371497   392.0464371497   402.2131038164   430.3797704831   455.0464371497   455.3797704831   443.2131038164   414.8797704831   415.5464371497   370.7131038164   352.5464371497   356.3797704831   334.2131038164   366.8797704831   395.8797704831   399.8797704831   422.8797704831   455.8797704831   497.7131038164   524.0464371497   542.5464371497   557.0464371497   531.5464371497   512.2131038164   516.8797704831   577.7131038164   616.5464371497   629.0464371497   635.2131038164   623.2131038164   597.7131038164   569.2131038164   540.5464371497   530.7131038164   509.8797704831   475.7131038164   434.5464371497   410.0464371497   399.2131038164   380.5464371497   351.3797704831   334.7131038164   320.0464371497   310.3797704831   297.2131038164   285.8797704831   279.2131038164   273.2131038164   268.0464371497   253.7131038164   236.5464371497   225.3797704831   217.5464371497   205.5464371497   184.0464371497   168.0464371497   161.7131038164   153.7131038164   138.0464371497   112.5464371497    86.5464371497    62.2131038164    38.0464371497    17.7131038164    -7.4535628503   -31.2868961836   -52.2868961836   -70.6202295169   -87.7868961836  -106.4535628503  -123.6202295169  -136.7868961836  -149.1202295169  -165.4535628503  -181.6202295169  -193.6202295169  -199.1202295169  -200.9535628503  -203.7868961836  -210.9535628503  -219.7868961836  -226.2868961836  -228.6202295169  -234.9535628503  -246.4535628503  -253.4535628503  -254.2868961836  -251.2868961836  -250.6202295169  -253.4535628503  -257.7868961836  -259.9535628503  -260.6202295169  -260.4535628503  -262.6202295169  -264.9535628503  -261.1202295169  -253.4535628503  -245.6202295169  -239.2868961836  -232.7868961836  -224.4535628503  -215.2868961836  -209.6202295169  -208.4535628503  -204.6202295169  -195.6202295169  -184.4535628503  -177.1202295169  -173.7868961836  -169.7868961836  -161.2868961836  -150.9535628503  -144.6202295169  -141.1202295169  -136.7868961836  -129.9535628503  -122.9535628503  -119.6202295169  -118.7868961836  -114.9535628503  -109.6202295169  -106.6202295169  -106.2868961836  -105.4535628503  -105.2868961836  -102.9535628503  -100.7868961836  -101.4535628503  -103.1202295169  -106.4535628503  -106.2868961836  -105.4535628503  -105.2868961836  -107.6202295169  -107.6202295169  -104.7868961836   -99.7868961836   -94.2868961836   -90.9535628503   -88.9535628503   -85.4535628503   -78.6202295169   -74.7868961836   -74.6202295169   -75.4535628503   -72.6202295169   -69.1202295169   -66.7868961836   -68.7868961836   -69.1202295169   -68.1202295169   -68.1202295169   -70.6202295169   -75.1202295169   -78.4535628503   -79.9535628503   -79.1202295169   -82.2868961836   -84.7868961836   -85.6202295169   -83.6202295169   -80.4535628503   -79.2868961836   -78.7868961836   -77.4535628503   -75.2868961836   -73.1202295169   -72.2868961836   -73.9535628503   -75.6202295169   -75.7868961836   -73.1202295169   -71.7868961836   -72.7868961836   -73.2868961836   -70.7868961836   -67.2868961836   -65.4535628503   -66.2868961836   -69.4535628503   -70.4535628503   -68.2868961836   -65.4535628503   -66.4535628503   -67.2868961836   -65.2868961836   -61.9535628503   -60.7868961836   -61.4535628503   -60.2868961836   -58.4535628503   -55.7868961836   -53.6202295169   -54.2868961836   -54.2868961836   -49.2868961836   -42.6202295169   -36.4535628503   -36.2868961836   -34.9535628503   -32.2868961836   -30.9535628503   -32.2868961836   -35.1202295169   -36.1202295169   -35.7868961836   -34.6202295169   -35.6202295169   -40.2868961836   -46.4535628503   -50.6202295169   -54.6202295169   -58.6202295169   -66.7868961836   -73.7868961836   -76.6202295169   -75.4535628503   -73.6202295169   -71.1202295169   -68.2868961836   -64.1202295169   -57.2868961836   -51.2868961836   -46.4535628503   -40.9535628503   -32.1202295169   -21.6202295169   -14.7868961836   -12.6202295169   -10.1202295169    -3.2868961836     4.5464371497    11.0464371497    15.3797704831    17.0464371497    17.7131038164    17.0464371497    14.0464371497     8.8797704831     3.3797704831     2.0464371497     4.0464371497     4.2131038164     5.2131038164     5.7131038164     9.5464371497    14.8797704831    20.2131038164    21.3797704831    18.2131038164    17.8797704831    19.8797704831    20.8797704831    19.8797704831    19.5464371497    22.0464371497    24.2131038164    23.3797704831    19.7131038164    14.7131038164    13.8797704831    12.5464371497     9.3797704831     3.5018681612    -0.5427008273     0.4127301842     0.3681611956    -0.6764077929    -1.2209767814    -0.4322124366     1.3565519082 
   -1.7831598612    -3.1294368828    -3.8090472378    -3.6553242594    -4.6682679477    -5.5145449693    -3.1941553243     0.1262343208    -1.2070990125    -4.8737656792    -6.3737656792    -5.0404323459    -4.0404323459    -2.3737656792    -3.2070990125    -7.2070990125    -7.0404323459    -4.5404323459    -2.2070990125    -4.2070990125    -5.5404323459    -6.7070990125    -9.2070990125   -12.8737656792   -15.5404323459   -16.2070990125   -16.2070990125   -16.0404323459   -15.7070990125   -17.5404323459   -19.8737656792   -18.2070990125   -15.8737656792   -15.8737656792   -17.3737656792   -18.5404323459   -19.7070990125   -19.3737656792   -17.2070990125   -16.3737656792   -17.0404323459   -14.8737656792   -10.5404323459    -8.3737656792    -7.5404323459    -7.2070990125    -2.3737656792     4.1262343208     9.1262343208    10.9595676541    11.7929009875    16.6262343208    25.4595676541    30.9595676541    31.2929009875    30.6262343208    34.2929009875    38.9595676541    39.7929009875    39.4595676541    39.2929009875    40.7929009875    41.4595676541    40.1262343208    36.7929009875    33.7929009875    33.4595676541    35.4595676541    34.6262343208    33.7929009875    33.9595676541    38.4595676541    43.6262343208    45.1262343208    44.4595676541    43.6262343208    44.4595676541    46.7929009875    48.1262343208    44.1262343208    39.9595676541    38.2929009875    39.6262343208    37.4595676541    31.7929009875    24.2929009875    17.7929009875    12.7929009875     6.4595676541    -0.7070990125    -5.7070990125    -7.7070990125    -8.0404323459   -10.5404323459   -14.2070990125   -13.8737656792   -11.2070990125    -7.8737656792   -10.2070990125   -13.5404323459   -13.3737656792    -8.8737656792    -3.7070990125    -1.8737656792    -3.3737656792    -4.0404323459    -0.7070990125     2.9595676541     2.7929009875    -1.2070990125    -5.0404323459    -7.7070990125    -8.3737656792    -9.8737656792   -10.5404323459   -11.3737656792   -11.8737656792   -12.0404323459   -13.7070990125   -17.0404323459   -19.5404323459   -17.8737656792   -15.2070990125   -13.2070990125   -12.7070990125   -10.7070990125    -7.0404323459    -1.8737656792     1.9595676541     3.4595676541     1.4595676541     2.7929009875     6.7929009875    10.2929009875    11.4595676541    11.6262343208    14.4595676541    18.1262343208    17.1262343208    11.9595676541     4.9595676541    -0.0404323459    -1.0404323459    -2.8737656792    -8.3737656792   -12.0404323459   -11.5404323459   -10.5404323459   -11.2070990125   -14.3737656792   -15.0404323459   -14.2070990125   -11.5404323459   -10.3737656792   -10.3737656792    -7.5404323459     1.2929009875    10.4595676541    10.9595676541     9.7929009875    11.4595676541    13.4595676541    17.2929009875    19.1262343208    16.1262343208     8.2929009875     3.6262343208     5.2929009875     6.1262343208     2.9595676541    -0.8737656792    -5.3737656792    -8.5404323459   -12.0404323459   -15.0404323459   -16.2070990125   -14.5404323459   -10.8737656792   -12.8737656792   -18.0404323459   -22.5404323459   -23.0404323459   -33.2070990125   -64.0404323459  -111.3737656792  -177.5404323459  -213.2070990125  -239.8737656792  -306.3737656792  -391.3737656792  -525.0404323459  -635.3737656792  -698.8737656792  -771.2070990125  -834.5404323459  -830.8737656792  -778.7070990125  -758.7070990125  -748.0404323459  -740.8737656792  -748.2070990125  -716.0404323459  -630.5404323459  -556.2070990125  -447.8737656792  -356.2070990125  -190.3737656792    -5.5404323459   145.4595676541   290.9595676541   401.1262343208   413.7929009875   403.1262343208   418.2929009875   462.1262343208   508.4595676541   574.7929009875   624.1262343208   582.7929009875   475.7929009875   402.1262343208   384.2929009875   395.4595676541   378.1262343208   357.6262343208   355.9595676541   384.2929009875   432.6262343208   420.7929009875   428.6262343208   436.1262343208   437.2929009875   440.9595676541   448.7929009875   481.7929009875   581.2929009875   656.7929009875   706.7929009875   694.9595676541   635.4595676541   570.1262343208   509.1262343208   462.1262343208   418.6262343208   421.9595676541   415.4595676541   393.2929009875   396.4595676541   399.1262343208   386.1262343208   362.4595676541   349.2929009875   331.9595676541   317.1262343208   309.4595676541   335.4595676541   344.2929009875   346.1262343208   342.4595676541   345.1262343208   326.9595676541   314.1262343208   303.4595676541   285.2929009875   268.1262343208   265.6262343208   265.4595676541   259.6262343208   246.4595676541   229.4595676541   210.4595676541   183.4595676541   172.1262343208   161.1262343208   138.7929009875   116.1262343208   102.9595676541    86.4595676541    72.9595676541    58.6262343208    46.6262343208    30.2929009875    11.6262343208    -9.2070990125   -30.0404323459   -47.2070990125   -58.2070990125   -60.5404323459   -67.3737656792   -82.5404323459   -96.3737656792  -105.0404323459  -108.2070990125  -115.0404323459  -125.5404323459  -132.5404323459  -137.0404323459  -140.3737656792  -148.7070990125  -158.7070990125  -164.7070990125  -168.2070990125  -170.5404323459  -172.5404323459  -178.3737656792  -182.2070990125  -184.2070990125  -184.5404323459  -187.7070990125  -194.0404323459  -200.3737656792  -202.7070990125  -202.5404323459  -203.2070990125  -204.2070990125  -206.0404323459  -205.2070990125  -201.8737656792  -200.3737656792  -203.3737656792  -204.0404323459  -200.5404323459  -191.8737656792  -186.8737656792  -184.7070990125  -181.8737656792  -178.2070990125  -172.2070990125  -166.0404323459  -163.5404323459  -161.8737656792  -155.3737656792  -148.7070990125  -144.3737656792  -141.3737656792  -137.2070990125  -132.8737656792  -130.5404323459  -134.0404323459  -137.5404323459  -141.8737656792  -142.5404323459  -139.3737656792  -139.3737656792  -143.0404323459  -144.3737656792  -143.0404323459  -142.2070990125  -141.5404323459  -141.5404323459  -142.0404323459  -142.5404323459  -140.8737656792  -139.0404323459  -139.3737656792  -139.5404323459  -135.3737656792  -128.7070990125  -124.2070990125  -122.0404323459  -120.2070990125  -117.3737656792  -113.5404323459  -111.3737656792  -110.8737656792  -112.7070990125  -116.3737656792  -118.0404323459  -118.0404323459  -118.2070990125  -116.8737656792  -114.3737656792  -111.7070990125  -111.8737656792  -112.5404323459  -111.7070990125  -108.2070990125  -103.7070990125  -100.5404323459   -98.8737656792   -98.3737656792   -94.7070990125   -86.2070990125   -78.7070990125   -76.2070990125   -72.8737656792   -67.7070990125   -62.8737656792   -60.0404323459   -57.5404323459   -58.7070990125   -59.5404323459   -57.5404323459   -55.0404323459   -53.8737656792   -52.5404323459   -49.2070990125   -45.0404323459   -42.3737656792   -42.2070990125   -43.0404323459   -43.3737656792   -41.7070990125   -43.3737656792   -47.5404323459   -52.5404323459   -51.8737656792   -48.5404323459   -47.0404323459   -49.0404323459   -52.2070990125   -54.2070990125   -55.0404323459   -53.8737656792   -54.5404323459   -55.3737656792   -55.0404323459   -51.8737656792   -48.7070990125   -45.8737656792   -43.8737656792   -40.8737656792   -38.5404323459   -38.7070990125   -42.3737656792   -45.2070990125   -45.3737656792   -43.2070990125   -42.3737656792   -46.8737656792   -51.3737656792   -52.3737656792   -49.0404323459   -49.8737656792   -54.3737656792   -56.7070990125   -53.2070990125   -49.5404323459   -48.3737656792   -49.0404323459   -50.2070990125   -49.7070990125   -46.5404323459   -43.7070990125   -44.2070990125   -43.8737656792   -42.0404323459   -36.8737656792   -34.8737656792   -34.8737656792   -37.0404323459   -37.2070990125   -35.5404323459   -34.2070990125   -33.0404323459   -31.5404323459   -27.8737656792   -23.3737656792   -22.3737656792   -25.7070990125   -28.8737656792   -28.5404323459   -26.3737656792   -27.3737656792   -30.8737656792   -31.2070990125   -28.2070990125   -24.5404323459   -24.3737656792   -25.5404323459   -27.0404323459   -25.7070990125   -23.0404323459   -22.8608219909   -22.6812116360   -19.8349346144   -14.8219909261   -11.8090472378   -10.7961035495   -10.4498265279    -7.6035495063 
