  -30.7842273819   -33.8713637577   -34.6251668001   -35.8789698425   -38.1327728850   -39.8865759274   -38.1403789698   -34.0608486789   -31.7275153456   -30.2275153456   -26.8941820123   -22.7275153456   -19.3941820123   -17.7275153456   -17.3941820123   -15.3941820123   -11.2275153456    -5.2275153456    -3.3941820123    -1.3941820123     2.6058179877     7.9391513211    10.7724846544    10.1058179877     7.7724846544     7.2724846544    11.6058179877    15.2724846544    15.7724846544    12.2724846544    12.2724846544    15.9391513211    18.4391513211    14.7724846544    10.2724846544     7.7724846544     8.2724846544     7.7724846544     4.2724846544     0.9391513211     0.9391513211     4.2724846544     5.7724846544     4.7724846544     2.2724846544     2.4391513211     3.7724846544     3.9391513211     1.4391513211    -1.0608486789     0.2724846544     2.2724846544     1.9391513211    -1.2275153456    -4.8941820123    -5.7275153456    -5.0608486789    -6.2275153456   -10.7275153456   -13.8941820123   -10.0608486789    -2.3941820123     3.7724846544     6.4391513211     7.9391513211    12.6058179877    18.4391513211    23.9391513211    25.6058179877    27.2724846544    30.6058179877    32.2724846544    35.2724846544    38.6058179877    42.6058179877    45.6058179877    45.6058179877    43.9391513211    39.6058179877    33.4391513211    29.9391513211    29.2724846544    29.6058179877    25.9391513211    20.4391513211    15.6058179877    13.1058179877    12.4391513211     6.7724846544    -1.2275153456    -7.0608486789    -7.8941820123    -8.3941820123    -9.3941820123    -8.8941820123    -5.3941820123     0.6058179877     2.7724846544    -0.2275153456    -3.7275153456    -3.5608486789     1.2724846544     4.2724846544     3.4391513211     2.6058179877     4.6058179877     7.6058179877     6.9391513211     3.6058179877    -3.0608486789    -8.0608486789    -7.3941820123    -7.0608486789    -7.3941820123    -9.0608486789    -7.8941820123    -4.5608486789    -4.2275153456    -5.3941820123    -6.5608486789    -8.0608486789    -9.7275153456   -11.0608486789   -11.8941820123   -11.8941820123    -9.2275153456    -5.2275153456    -6.3941820123   -10.3941820123   -14.8941820123   -14.5608486789   -13.2275153456   -13.2275153456   -14.8941820123   -17.8941820123   -19.3941820123   -17.0608486789   -13.0608486789   -11.8941820123   -12.2275153456   -10.5608486789    -8.2275153456    -7.7275153456    -8.0608486789    -9.2275153456    -8.8941820123    -7.7275153456    -9.0608486789   -13.0608486789   -17.0608486789   -16.5608486789   -14.3941820123   -13.0608486789   -16.0608486789   -20.5608486789   -24.7275153456   -27.3941820123   -29.0608486789   -33.2275153456   -39.0608486789   -43.5608486789   -46.5608486789   -49.5608486789   -52.3941820123   -56.5608486789   -57.5608486789   -55.2275153456   -53.7275153456   -56.2275153456   -59.2275153456   -54.5608486789   -45.3941820123   -38.0608486789   -38.2275153456   -43.2275153456   -43.7275153456   -39.2275153456   -34.8941820123   -29.5608486789   -24.8941820123   -17.8941820123   -15.2275153456   -24.5608486789   -60.5608486789  -115.3941820123  -168.7275153456  -238.2275153456  -331.0608486789  -433.0608486789  -557.5608486789  -711.8941820123  -884.7275153456 -1042.3941820123 -1095.7275153456 -1126.3941820123 -1138.5608486789 -1069.8941820123  -971.8941820123  -904.7275153456  -812.8941820123  -691.7275153456  -600.0608486789  -607.7275153456  -575.2275153456  -387.3941820123  -264.7275153456  -113.7275153456    87.4391513211   257.1058179877   234.1058179877   186.6058179877   284.9391513211   227.9391513211   147.9391513211   174.6058179877    47.4391513211  -131.8941820123  -138.2275153456    46.1058179877   252.4391513211   193.1058179877   231.2724846544   310.7724846544   366.6058179877   426.6058179877   569.4391513211   761.1058179877   762.9391513211   757.9391513211   759.9391513211   775.9391513211   940.4391513211  1099.6058179877   997.1058179877   817.6058179877   580.9391513211   550.1058179877   591.1058179877   601.2724846544   561.4391513211   479.6058179877   439.7724846544   362.1058179877   303.2724846544   312.2724846544   301.2724846544   221.1058179877   152.2724846544   125.7724846544   219.7724846544   314.9391513211   413.9391513211   422.6058179877   356.9391513211   290.1058179877   266.2724846544   290.7724846544   271.1058179877   241.4391513211   217.6058179877   206.2724846544   207.7724846544   200.4391513211   187.9391513211   178.2724846544   162.9391513211   146.2724846544   138.7724846544   133.6058179877   121.7724846544    99.2724846544    79.9391513211    64.6058179877    55.2724846544    40.7724846544    29.2724846544    21.9391513211    13.4391513211    -0.3941820123   -14.8941820123   -26.3941820123   -34.7275153456   -49.2275153456   -63.3941820123   -76.3941820123   -86.5608486789   -87.0608486789   -94.5608486789  -107.2275153456  -123.0608486789  -136.2275153456  -147.7275153456  -160.8941820123  -178.3941820123  -196.8941820123  -212.7275153456  -223.8941820123  -231.8941820123  -238.3941820123  -245.7275153456  -251.3941820123  -250.5608486789  -247.5608486789  -240.8941820123  -232.3941820123  -223.5608486789  -214.2275153456  -204.2275153456  -193.0608486789  -181.5608486789  -168.5608486789  -154.2275153456  -141.2275153456  -132.5608486789  -124.7275153456  -115.2275153456  -104.3941820123   -95.7275153456   -89.8941820123   -90.7275153456   -92.3941820123   -88.5608486789   -83.0608486789   -82.8941820123   -87.2275153456   -89.7275153456   -91.0608486789   -92.8941820123   -96.5608486789  -101.8941820123  -104.3941820123  -105.2275153456  -106.8941820123  -113.0608486789  -119.8941820123  -124.5608486789  -127.2275153456  -132.5608486789  -141.8941820123  -151.3941820123  -158.2275153456  -161.3941820123  -162.5608486789  -166.5608486789  -171.3941820123  -170.5608486789  -168.0608486789  -166.0608486789  -167.5608486789  -168.8941820123  -168.8941820123  -164.3941820123  -161.5608486789  -157.7275153456  -154.8941820123  -148.7275153456  -139.7275153456  -133.2275153456  -130.0608486789  -128.3941820123  -126.5608486789  -124.5608486789  -123.8941820123  -124.8941820123  -126.0608486789  -124.3941820123  -122.7275153456  -122.2275153456  -120.7275153456  -122.8941820123  -123.8941820123  -122.0608486789  -122.3941820123  -125.8941820123  -131.7275153456  -135.0608486789  -134.3941820123  -134.5608486789  -136.2275153456  -137.0608486789  -134.7275153456  -132.5608486789  -129.5608486789  -131.5608486789  -136.2275153456  -138.7275153456  -134.8941820123  -132.7275153456  -133.3941820123  -133.8941820123  -129.5608486789  -123.2275153456  -119.2275153456  -117.8941820123  -118.8941820123  -119.8941820123  -119.5608486789  -118.8941820123  -122.5608486789  -122.8941820123  -118.8941820123  -112.8941820123  -110.2275153456  -109.2275153456  -109.3941820123  -107.2275153456  -102.7275153456   -98.2275153456   -93.7275153456   -90.3941820123   -85.8941820123   -80.3941820123   -78.0608486789   -77.3941820123   -76.3941820123   -75.8941820123   -73.5608486789   -71.2275153456   -72.7275153456   -75.7275153456   -75.3941820123   -72.8941820123   -73.2275153456   -77.3941820123   -86.3941820123   -91.7275153456   -93.0608486789   -93.8941820123   -95.7275153456   -99.0608486789   -97.7275153456   -94.0608486789   -93.7275153456   -96.2275153456   -98.0608486789   -97.8941820123   -94.7275153456   -93.3941820123   -96.7275153456  -101.0608486789  -100.5608486789   -99.7275153456   -99.8941820123  -101.3941820123  -105.0608486789  -105.0608486789  -104.3941820123  -103.2275153456  -102.5608486789  -102.3941820123   -99.5608486789   -96.0608486789   -94.7275153456   -95.2275153456   -94.5608486789   -90.5608486789   -85.0608486789   -79.5608486789   -75.7275153456   -75.0608486789   -71.7275153456   -68.7275153456   -65.7275153456   -66.2275153456   -66.8941820123   -66.2275153456   -65.5608486789   -64.2275153456   -65.2275153456   -66.2275153456   -66.0608486789   -65.3941820123   -62.7275153456   -61.1403789698   -59.0532425941   -53.9661062183   -48.0456365092   -42.7918334668   -39.5380304243   -35.4508940486   -30.6970910061 
    3.9340527578     7.3896882494    10.5119904077    11.6342925659    12.2565947242    14.2122302158    18.1678657074    21.7901678657    21.4568345324    17.4568345324    15.6235011990    14.7901678657    11.6235011990     6.1235011990     2.9568345324     6.2901678657     8.7901678657     9.9568345324    10.1235011990     9.9568345324     9.7901678657     9.2901678657     6.9568345324     2.6235011990    -0.8764988010    -0.7098321343     3.4568345324     6.9568345324     6.2901678657     6.2901678657     9.7901678657    13.9568345324    15.9568345324    13.4568345324    10.2901678657     8.6235011990     8.6235011990    10.9568345324    10.1235011990     7.7901678657     6.9568345324     9.2901678657     8.9568345324     7.2901678657     5.7901678657     5.6235011990     5.2901678657     2.2901678657    -2.0431654676    -6.7098321343    -9.3764988010   -10.3764988010   -11.3764988010   -17.3764988010   -21.2098321343   -19.0431654676   -15.8764988010   -15.2098321343   -16.7098321343   -18.3764988010   -17.8764988010   -13.8764988010    -9.3764988010    -6.5431654676    -4.8764988010    -1.5431654676     3.7901678657     9.1235011990    12.4568345324    16.1235011990    20.7901678657    24.2901678657    28.1235011990    27.2901678657    24.4568345324    23.9568345324    25.4568345324    24.2901678657    19.2901678657    13.4568345324    10.4568345324    10.9568345324     8.9568345324     4.2901678657    -2.3764988010    -6.3764988010    -8.3764988010   -11.2098321343   -17.2098321343   -21.0431654676   -23.3764988010   -23.3764988010   -24.0431654676   -27.0431654676   -31.2098321343   -31.8764988010   -29.3764988010   -29.2098321343   -32.2098321343   -35.5431654676   -34.7098321343   -32.0431654676   -31.8764988010   -32.2098321343   -31.2098321343   -27.7098321343   -21.0431654676   -17.7098321343   -17.8764988010   -18.5431654676   -15.5431654676   -11.2098321343   -11.5431654676   -12.0431654676   -13.2098321343   -11.0431654676    -7.2098321343    -6.5431654676    -8.7098321343   -11.2098321343   -10.5431654676   -10.7098321343   -12.2098321343   -14.8764988010   -16.3764988010   -14.8764988010   -11.8764988010   -11.5431654676   -13.3764988010   -18.0431654676   -16.7098321343   -14.7098321343   -15.3764988010   -17.2098321343   -17.2098321343   -13.7098321343   -10.8764988010    -8.5431654676    -7.5431654676    -7.0431654676    -5.7098321343    -2.0431654676    -1.3764988010    -2.7098321343    -3.3764988010    -3.0431654676    -2.0431654676    -0.7098321343    -0.8764988010    -2.8764988010    -2.8764988010    -2.7098321343    -2.8764988010    -3.5431654676    -5.3764988010    -6.8764988010    -6.8764988010    -8.5431654676   -13.7098321343   -18.8764988010   -19.8764988010   -17.3764988010   -17.2098321343   -16.2098321343   -17.7098321343   -25.0431654676   -41.5431654676   -64.0431654676   -87.7098321343  -117.8764988010  -156.8764988010  -200.0431654676  -256.8764988010  -322.8764988010  -365.5431654676  -399.5431654676  -467.3764988010  -564.7098321343  -669.2098321343  -715.8764988010  -693.2098321343  -631.5431654676  -621.8764988010  -645.0431654676  -594.8764988010  -464.3764988010  -329.5431654676  -282.8764988010  -316.2098321343  -338.7098321343  -301.3764988010  -196.2098321343   -21.8764988010    88.4568345324   218.1235011990   181.2901678657   125.7901678657   172.2901678657   226.4568345324   350.6235011990   457.6235011990   437.2901678657   287.7901678657   241.7901678657   401.6235011990   540.9568345324   566.9568345324   507.6235011990   474.1235011990   542.4568345324   548.9568345324   695.2901678657   771.6235011990   744.2901678657   776.7901678657   776.7901678657   676.1235011990   617.4568345324   723.1235011990   835.6235011990   799.6235011990   712.1235011990   698.7901678657   732.4568345324   676.2901678657   556.2901678657   508.9568345324   449.2901678657   405.9568345324   331.9568345324   267.6235011990   209.1235011990   193.7901678657   186.2901678657   147.2901678657    87.1235011990    58.7901678657    93.6235011990    91.4568345324    55.6235011990    51.4568345324   103.4568345324   131.1235011990   126.9568345324   131.1235011990   137.9568345324   130.9568345324   117.6235011990   102.4568345324    87.7901678657    75.6235011990    71.1235011990    65.2901678657    67.2901678657    63.9568345324    58.9568345324    49.2901678657    33.2901678657    16.4568345324     9.6235011990     2.4568345324    -2.7098321343    -7.5431654676   -15.3764988010   -23.0431654676   -29.2098321343   -32.2098321343   -40.8764988010   -48.7098321343   -63.2098321343   -77.2098321343   -91.0431654676  -104.0431654676  -114.3764988010  -125.0431654676  -135.7098321343  -146.3764988010  -159.0431654676  -177.3764988010  -195.8764988010  -211.7098321343  -223.0431654676  -235.7098321343  -247.0431654676  -253.5431654676  -252.2098321343  -245.2098321343  -236.5431654676  -230.2098321343  -224.8764988010  -214.2098321343  -202.2098321343  -190.5431654676  -181.2098321343  -173.0431654676  -163.7098321343  -150.2098321343  -136.0431654676  -126.3764988010  -117.0431654676  -108.0431654676   -98.7098321343   -91.8764988010   -91.2098321343   -91.0431654676   -86.5431654676   -84.5431654676   -86.0431654676   -89.7098321343   -92.3764988010   -90.2098321343   -84.8764988010   -81.3764988010   -84.8764988010   -87.2098321343   -86.8764988010   -85.5431654676   -86.7098321343   -90.8764988010   -92.7098321343   -95.7098321343   -98.2098321343   -99.3764988010   -99.7098321343  -101.7098321343  -102.2098321343  -101.2098321343  -100.8764988010  -103.5431654676  -105.7098321343  -106.2098321343  -106.3764988010  -106.8764988010  -110.7098321343  -116.2098321343  -119.8764988010  -116.8764988010  -116.3764988010  -119.2098321343  -122.5431654676  -122.2098321343  -120.0431654676  -119.0431654676  -120.0431654676  -122.2098321343  -120.5431654676  -115.3764988010  -111.8764988010  -112.7098321343  -115.3764988010  -115.0431654676  -113.0431654676  -114.2098321343  -117.3764988010  -119.8764988010  -118.8764988010  -117.8764988010  -116.8764988010  -120.3764988010  -126.5431654676  -131.0431654676  -133.0431654676  -136.2098321343  -141.8764988010  -145.8764988010  -143.2098321343  -139.3764988010  -136.3764988010  -135.2098321343  -134.2098321343  -130.0431654676  -124.3764988010  -119.3764988010  -119.5431654676  -120.3764988010  -118.2098321343  -112.2098321343  -108.3764988010  -110.7098321343  -111.5431654676  -110.0431654676  -108.0431654676  -106.0431654676  -105.8764988010  -103.2098321343   -98.8764988010   -94.3764988010   -93.5431654676   -95.8764988010   -97.8764988010   -95.0431654676   -91.7098321343   -91.0431654676   -90.7098321343   -87.3764988010   -81.2098321343   -75.8764988010   -71.2098321343   -67.2098321343   -66.3764988010   -68.5431654676   -70.7098321343   -74.7098321343   -79.5431654676   -83.3764988010   -81.3764988010   -78.3764988010   -75.0431654676   -73.2098321343   -71.5431654676   -69.2098321343   -67.0431654676   -63.0431654676   -64.3764988010   -70.0431654676   -70.5431654676   -65.2098321343   -56.0431654676   -49.2098321343   -44.2098321343   -37.7098321343   -31.3764988010   -26.3764988010   -26.0431654676   -27.0431654676   -26.2098321343   -22.0431654676   -19.7098321343   -20.8764988010   -21.3764988010   -16.2098321343   -10.3764988010    -8.2098321343   -13.0431654676   -18.8764988010   -20.3764988010   -17.7098321343   -19.0431654676   -21.8764988010   -22.0431654676   -18.7098321343   -15.5431654676   -16.0431654676   -18.8764988010   -22.3764988010   -22.0431654676   -19.3764988010   -18.7098321343   -21.0431654676   -22.0431654676   -17.8764988010   -11.5431654676    -8.5431654676    -8.2098321343    -8.0431654676    -6.2098321343    -2.8764988010    -1.8764988010    -2.8764988010    -3.5431654676    -0.5431654676     3.7901678657     3.6235011990     0.6235011990    -1.7098321343    -1.5431654676    -0.3764988010    -0.5431654676    -1.0431654676    -2.7098321343    -1.5431654676     1.9568345324     4.2901678657     2.6678657074     3.5455635492     6.4232613909     8.3009592326     7.0119904077     6.2230215827     7.4340527578    10.3117505995 
   -4.0550654905    -2.3019246191     1.6178829190     6.3710237904     8.7908313285     8.5439722000    10.9637797380    15.0502539428    15.2169206095    13.5502539428    13.7169206095    17.3835872761    21.0502539428    23.0502539428    21.7169206095    21.0502539428    21.8835872761    21.8835872761    20.2169206095    15.3835872761    11.8835872761    12.5502539428    12.7169206095    10.2169206095     6.0502539428     4.8835872761     6.2169206095     8.7169206095    10.3835872761    10.0502539428    10.7169206095    13.5502539428    16.7169206095    17.2169206095    15.0502539428    12.8835872761    12.5502539428    13.8835872761    13.2169206095    13.2169206095    16.0502539428    19.0502539428    21.7169206095    21.7169206095    16.7169206095    12.5502539428    10.0502539428     7.0502539428     5.2169206095     2.0502539428    -0.6164127239    -0.9497460572     0.3835872761    -1.6164127239    -3.6164127239    -6.6164127239    -8.7830793905   -10.1164127239   -13.2830793905   -17.6164127239   -17.9497460572   -17.1164127239   -15.4497460572   -16.2830793905   -21.9497460572   -26.4497460572   -27.2830793905   -26.9497460572   -29.2830793905   -32.7830793905   -35.7830793905   -35.2830793905   -33.4497460572   -33.4497460572   -35.9497460572   -36.4497460572   -34.2830793905   -29.6164127239   -26.7830793905   -24.9497460572   -21.1164127239   -15.2830793905    -8.2830793905    -3.4497460572    -1.9497460572     0.2169206095     3.7169206095     5.8835872761     5.8835872761     4.5502539428     3.8835872761     4.5502539428     5.8835872761     4.8835872761     0.3835872761    -3.7830793905    -4.7830793905    -4.6164127239    -7.4497460572   -13.9497460572   -17.2830793905   -16.7830793905   -14.1164127239   -10.7830793905    -9.6164127239    -9.1164127239    -6.2830793905    -2.2830793905    -1.2830793905    -1.6164127239     0.7169206095     5.7169206095    11.5502539428    14.2169206095    13.5502539428    17.5502539428    24.5502539428    29.2169206095    30.0502539428    27.8835872761    25.0502539428    26.7169206095    29.7169206095    30.7169206095    28.8835872761    25.7169206095    26.7169206095    30.8835872761    30.5502539428    27.3835872761    24.7169206095    21.3835872761    18.3835872761    14.8835872761     8.3835872761     1.8835872761     0.7169206095     2.0502539428     2.5502539428     0.2169206095    -0.7830793905     1.7169206095     4.5502539428     1.3835872761    -3.7830793905    -5.7830793905    -1.2830793905     7.3835872761    12.0502539428    12.0502539428    14.3835872761    20.8835872761    27.8835872761    29.5502539428    26.0502539428    23.2169206095    24.2169206095    26.5502539428    23.8835872761    19.0502539428    18.2169206095    20.0502539428    19.7169206095    14.3835872761     9.2169206095     5.8835872761     4.8835872761     3.2169206095    -1.7830793905    -7.4497460572   -11.2830793905   -11.6164127239   -11.7830793905   -17.7830793905   -24.7830793905   -35.6164127239   -58.1164127239   -94.6164127239  -150.1164127239  -204.1164127239  -282.7830793905  -389.4497460572  -505.4497460572  -604.6164127239  -730.9497460572  -902.1164127239 -1061.1164127239 -1206.7830793905 -1380.6164127239 -1426.6164127239 -1381.1164127239 -1263.2830793905 -1122.6164127239  -979.4497460572  -795.2830793905  -666.7830793905  -620.2830793905  -503.2830793905  -256.4497460572    43.2169206095   323.8835872761   594.0502539428   835.0502539428   955.0502539428  1083.7169206095  1134.2169206095  1076.8835872761   995.0502539428   879.5502539428   630.0502539428   383.2169206095   328.0502539428   476.5502539428   562.0502539428   497.5502539428   417.8835872761   388.7169206095   392.3835872761   315.5502539428   339.8835872761   477.8835872761   586.8835872761   626.7169206095   581.2169206095   618.8835872761   814.3835872761   971.7169206095   909.5502539428   730.5502539428   554.7169206095   463.0502539428   406.8835872761   293.7169206095   225.5502539428   273.0502539428   317.0502539428   269.8835872761   209.5502539428   215.5502539428   257.7169206095   235.0502539428   206.3835872761   194.2169206095   250.5502539428   332.0502539428   437.2169206095   487.5502539428   456.3835872761   481.5502539428   479.3835872761   450.8835872761   423.2169206095   376.7169206095   326.5502539428   281.0502539428   271.5502539428   281.5502539428   285.2169206095   280.2169206095   285.3835872761   280.5502539428   273.7169206095   261.8835872761   229.7169206095   192.2169206095   167.0502539428   149.0502539428   139.2169206095   135.7169206095   131.5502539428   144.5502539428   132.2169206095   105.3835872761    75.7169206095    48.8835872761    20.5502539428    -1.6164127239   -24.6164127239   -46.6164127239   -63.2830793905   -81.1164127239  -103.1164127239  -121.9497460572  -144.4497460572  -161.2830793905  -178.1164127239  -194.4497460572  -210.4497460572  -227.6164127239  -248.6164127239  -268.6164127239  -278.2830793905  -286.2830793905  -293.6164127239  -299.2830793905  -303.9497460572  -303.2830793905  -300.7830793905  -299.7830793905  -296.4497460572  -291.6164127239  -285.7830793905  -276.4497460572  -268.7830793905  -262.7830793905  -254.2830793905  -243.2830793905  -234.2830793905  -227.7830793905  -224.9497460572  -223.6164127239  -216.7830793905  -210.2830793905  -208.4497460572  -207.2830793905  -205.6164127239  -201.2830793905  -194.2830793905  -189.6164127239  -187.7830793905  -186.7830793905  -182.6164127239  -177.6164127239  -177.1164127239  -178.4497460572  -176.7830793905  -171.6164127239  -166.9497460572  -163.9497460572  -162.2830793905  -157.9497460572  -152.6164127239  -147.7830793905  -147.6164127239  -150.1164127239  -150.7830793905  -145.4497460572  -139.9497460572  -140.2830793905  -141.7830793905  -140.9497460572  -138.6164127239  -134.7830793905  -131.6164127239  -130.4497460572  -130.9497460572  -130.1164127239  -127.6164127239  -126.1164127239  -125.6164127239  -127.9497460572  -126.9497460572  -126.7830793905  -127.1164127239  -126.6164127239  -124.1164127239  -119.7830793905  -115.4497460572  -112.6164127239  -113.6164127239  -114.4497460572  -111.1164127239  -108.7830793905  -109.2830793905  -114.4497460572  -119.1164127239  -117.6164127239  -115.6164127239  -116.6164127239  -119.9497460572  -122.1164127239  -122.6164127239  -125.4497460572  -131.1164127239  -139.4497460572  -143.7830793905  -144.2830793905  -142.7830793905  -141.6164127239  -141.6164127239  -139.1164127239  -133.2830793905  -126.7830793905  -123.4497460572  -123.4497460572  -122.9497460572  -122.9497460572  -121.1164127239  -118.2830793905  -116.4497460572  -114.2830793905  -108.9497460572  -102.2830793905   -98.2830793905   -96.2830793905   -94.1164127239   -90.1164127239   -85.1164127239   -82.7830793905   -80.9497460572   -77.1164127239   -72.7830793905   -66.6164127239   -65.1164127239   -65.6164127239   -65.6164127239   -60.6164127239   -56.7830793905   -58.1164127239   -60.2830793905   -62.7830793905   -62.7830793905   -60.7830793905   -62.4497460572   -65.6164127239   -66.1164127239   -64.2830793905   -62.4497460572   -61.9497460572   -62.7830793905   -62.2830793905   -60.2830793905   -61.1164127239   -61.7830793905   -61.6164127239   -62.6164127239   -59.4497460572   -56.1164127239   -56.4497460572   -58.4497460572   -57.4497460572   -55.7830793905   -51.6164127239   -47.4497460572   -46.9497460572   -43.2830793905   -37.9497460572   -34.1164127239   -34.4497460572   -35.9497460572   -38.6164127239   -36.9497460572   -36.6164127239   -37.7830793905   -39.1164127239   -39.6164127239   -40.1164127239   -40.4497460572   -43.4497460572   -48.7830793905   -50.7830793905   -49.7830793905   -49.2830793905   -47.7830793905   -48.2830793905   -51.4497460572   -50.1164127239   -48.2830793905   -47.2830793905   -47.2830793905   -48.1164127239   -47.6164127239   -44.9497460572   -43.9497460572   -45.7830793905   -44.7830793905   -41.2830793905   -36.1164127239   -31.6164127239   -29.9497460572   -26.4497460572   -21.9497460572   -19.4497460572   -18.0362202620   -16.6226944667   -13.3758353381    -8.2956428762    -3.0487837477    -1.8019246191    -1.5550654905     0.8584603047 
    2.2867627435     5.1334400854     6.3134507606     4.6601281025     1.6734721110    -0.8131838804    -1.2998398719    -2.2864958634    -5.2864958634    -9.1198291967    -8.1198291967    -6.2864958634    -5.4531625300    -6.9531625300    -9.2864958634    -8.6198291967    -6.6198291967    -8.4531625300   -10.7864958634   -10.1198291967    -6.4531625300    -1.2864958634     0.8801708033     2.8801708033     5.0468374700    10.3801708033    15.5468374700    19.3801708033    20.5468374700    20.3801708033    21.0468374700    22.5468374700    21.8801708033    19.7135041366    19.7135041366    22.3801708033    26.0468374700    25.8801708033    23.2135041366    20.8801708033    20.8801708033    20.5468374700    16.8801708033    11.5468374700     8.5468374700    10.5468374700    13.2135041366    12.8801708033     9.0468374700     7.2135041366     6.8801708033     4.5468374700    -0.7864958634    -6.1198291967    -8.1198291967    -7.6198291967    -9.6198291967   -13.1198291967   -17.6198291967   -22.4531625300   -25.4531625300   -28.2864958634   -30.7864958634   -33.7864958634   -31.1198291967   -26.7864958634   -22.6198291967   -20.2864958634   -19.6198291967   -19.7864958634   -19.9531625300   -19.4531625300   -19.6198291967   -20.6198291967   -22.2864958634   -19.7864958634   -16.7864958634   -15.4531625300   -15.4531625300   -14.7864958634   -13.9531625300   -13.9531625300   -13.7864958634   -13.7864958634   -12.7864958634    -8.6198291967    -3.1198291967    -2.6198291967    -2.6198291967    -2.6198291967     3.7135041366     8.8801708033     9.3801708033     7.5468374700     3.7135041366     4.2135041366     5.8801708033     6.2135041366     0.0468374700    -4.1198291967    -5.9531625300    -6.2864958634    -6.9531625300    -6.7864958634    -5.6198291967    -1.9531625300     0.0468374700     0.2135041366    -0.9531625300    -1.2864958634     2.2135041366     3.0468374700     1.7135041366    -1.4531625300     0.2135041366     3.2135041366     6.5468374700     5.8801708033     1.5468374700    -3.9531625300    -5.2864958634    -2.6198291967    -0.6198291967    -1.1198291967    -0.2864958634     3.5468374700     6.5468374700     9.3801708033     7.5468374700     8.3801708033    10.5468374700    13.8801708033    13.8801708033    11.7135041366    11.3801708033    16.2135041366    20.5468374700    21.0468374700    17.7135041366    15.0468374700    14.7135041366    13.5468374700    12.0468374700     8.5468374700     8.0468374700    13.3801708033    21.0468374700    16.5468374700     1.2135041366   -11.6198291967   -27.2864958634   -61.7864958634   -94.2864958634  -110.7864958634  -134.4531625300  -172.4531625300  -213.1198291967  -243.7864958634  -277.1198291967  -322.2864958634  -369.4531625300  -409.7864958634  -465.9531625300  -518.4531625300  -542.7864958634  -605.9531625300  -671.2864958634  -656.4531625300  -626.4531625300  -543.4531625300  -429.9531625300  -364.4531625300  -343.4531625300  -339.2864958634  -369.4531625300  -288.1198291967  -182.1198291967  -215.9531625300  -133.7864958634    31.5468374700   161.5468374700   313.7135041366   458.5468374700   463.3801708033   454.3801708033   292.7135041366   134.7135041366   128.8801708033   182.5468374700   263.8801708033   477.5468374700   531.0468374700   505.7135041366   609.0468374700   592.3801708033   533.0468374700   553.7135041366   583.2135041366   616.3801708033   694.5468374700   786.5468374700   942.3801708033  1048.7135041366  1042.7135041366   995.8801708033   896.5468374700   707.7135041366   620.3801708033   592.3801708033   545.3801708033   548.3801708033   512.8801708033   411.5468374700   321.3801708033   213.2135041366   141.0468374700    55.7135041366     1.0468374700   -15.6198291967     2.3801708033    50.8801708033   120.3801708033   181.3801708033   202.2135041366   222.3801708033   256.3801708033   245.7135041366   235.0468374700   232.2135041366   230.5468374700   257.2135041366   275.7135041366   282.0468374700   269.0468374700   244.5468374700   212.7135041366   184.5468374700   160.7135041366   136.7135041366   114.7135041366    89.3801708033    66.3801708033    51.8801708033    39.8801708033    23.0468374700     3.0468374700   -17.4531625300   -35.7864958634   -50.7864958634   -58.4531625300   -63.4531625300   -72.6198291967   -92.6198291967  -110.4531625300  -127.6198291967  -147.4531625300  -163.9531625300  -176.4531625300  -190.9531625300  -207.2864958634  -218.2864958634  -226.6198291967  -237.6198291967  -249.7864958634  -259.6198291967  -267.4531625300  -277.9531625300  -285.4531625300  -288.7864958634  -287.9531625300  -285.9531625300  -280.9531625300  -274.9531625300  -271.4531625300  -263.1198291967  -251.1198291967  -239.9531625300  -232.1198291967  -223.2864958634  -214.1198291967  -204.2864958634  -195.6198291967  -188.6198291967  -183.7864958634  -178.6198291967  -172.4531625300  -163.7864958634  -158.1198291967  -157.7864958634  -158.2864958634  -157.9531625300  -157.1198291967  -157.6198291967  -158.7864958634  -159.1198291967  -155.2864958634  -151.1198291967  -148.4531625300  -144.7864958634  -142.6198291967  -138.2864958634  -134.4531625300  -133.4531625300  -134.7864958634  -132.7864958634  -128.6198291967  -123.9531625300  -122.1198291967  -122.9531625300  -123.2864958634  -122.1198291967  -122.2864958634  -123.1198291967  -123.7864958634  -125.9531625300  -125.1198291967  -122.7864958634  -122.1198291967  -124.6198291967  -124.9531625300  -124.6198291967  -122.2864958634  -119.9531625300  -119.2864958634  -118.2864958634  -113.1198291967  -106.9531625300  -102.4531625300  -101.2864958634  -103.4531625300  -105.2864958634  -106.7864958634  -108.9531625300  -111.4531625300  -111.2864958634  -107.9531625300  -103.6198291967  -103.2864958634  -105.9531625300  -106.1198291967  -102.6198291967  -100.1198291967   -96.9531625300   -97.1198291967   -96.6198291967   -89.9531625300   -80.6198291967   -72.7864958634   -69.2864958634   -68.2864958634   -64.2864958634   -58.7864958634   -54.9531625300   -54.7864958634   -55.6198291967   -52.4531625300   -48.6198291967   -47.9531625300   -53.1198291967   -53.9531625300   -50.7864958634   -47.4531625300   -48.1198291967   -49.7864958634   -49.6198291967   -43.9531625300   -39.7864958634   -39.4531625300   -42.4531625300   -42.7864958634   -37.9531625300   -35.9531625300   -38.4531625300   -42.1198291967   -42.7864958634   -41.2864958634   -40.9531625300   -44.9531625300   -50.7864958634   -56.6198291967   -60.7864958634   -65.9531625300   -73.2864958634   -81.6198291967   -84.9531625300   -83.9531625300   -83.4531625300   -83.6198291967   -83.2864958634   -82.1198291967   -79.7864958634   -78.1198291967   -79.4531625300   -81.2864958634   -81.1198291967   -78.1198291967   -73.1198291967   -68.9531625300   -65.2864958634   -61.1198291967   -58.2864958634   -55.7864958634   -55.6198291967   -59.1198291967   -61.1198291967   -59.2864958634   -56.4531625300   -56.6198291967   -56.9531625300   -55.6198291967   -52.6198291967   -48.7864958634   -47.7864958634   -49.4531625300   -49.4531625300   -47.2864958634   -44.6198291967   -43.4531625300   -42.4531625300   -38.4531625300   -34.1198291967   -30.9531625300   -31.1198291967   -32.1198291967   -32.4531625300   -31.4531625300   -29.7864958634   -29.7864958634   -31.9531625300   -32.4531625300   -30.2864958634   -27.2864958634   -25.1198291967   -23.4531625300   -21.4531625300   -17.9531625300   -14.2864958634   -11.9531625300   -11.2864958634   -10.4531625300    -7.2864958634    -1.9531625300     2.0468374700     4.3801708033     7.5468374700    11.7135041366    16.3801708033    17.3801708033    15.7135041366    12.7135041366    10.0468374700     8.3801708033     5.2135041366     0.0468374700    -3.1198291967    -2.9531625300    -0.9531625300    -3.6198291967    -7.6198291967   -11.4531625300   -12.2864958634   -11.4531625300   -12.4531625300   -13.2864958634   -14.2864958634   -11.9531625300    -6.4531625300    -4.4531625300    -5.1198291967    -3.9531625300    -0.7864958634     4.8801708033     8.7135041366     9.5334934614    11.8534827862    15.0068054444    15.9934614358    14.6467840939    12.8001067521    12.4534294102    14.6067520683 
   11.1042167067     8.0972778223     6.9236722711     8.0834000534     9.9097945023    10.2361889512     9.3959167334     7.3889778489     5.3889778489     3.8889778489     2.2223111823    -0.6110221511    -2.1110221511    -0.1110221511    -0.7776888177    -3.1110221511    -5.1110221511    -4.2776888177    -4.1110221511    -5.2776888177    -7.6110221511    -8.7776888177    -7.2776888177    -1.9443554844     1.2223111823    -0.1110221511    -1.6110221511    -0.1110221511     3.5556445156     4.3889778489     4.3889778489     3.0556445156     5.5556445156    11.3889778489    16.8889778489    17.5556445156    15.3889778489    14.2223111823    12.2223111823     9.5556445156     7.5556445156     6.3889778489     7.8889778489    10.5556445156    12.3889778489    12.2223111823    11.7223111823    13.3889778489    14.7223111823    13.3889778489    11.2223111823    10.5556445156    12.7223111823    16.2223111823    19.3889778489    19.8889778489    17.3889778489    17.7223111823    17.5556445156    15.7223111823    10.8889778489     6.7223111823     3.0556445156     1.8889778489    -0.1110221511    -3.6110221511   -11.2776888177   -14.9443554844   -15.7776888177   -16.7776888177   -19.1110221511   -22.2776888177   -22.2776888177   -21.2776888177   -19.6110221511   -19.2776888177   -17.7776888177   -15.9443554844   -10.6110221511    -6.9443554844    -6.2776888177    -7.7776888177    -6.2776888177    -1.7776888177     1.3889778489     1.5556445156     0.7223111823     2.3889778489     4.3889778489     4.8889778489     3.5556445156     0.8889778489     0.0556445156     1.8889778489     2.3889778489    -1.1110221511    -3.4443554844    -2.9443554844     1.3889778489     1.5556445156    -0.6110221511    -1.6110221511     0.5556445156     3.2223111823     7.5556445156     9.2223111823     8.5556445156     8.8889778489     9.5556445156     8.5556445156     4.5556445156     2.5556445156     3.8889778489     6.7223111823     8.2223111823     8.2223111823     6.7223111823     5.5556445156     6.5556445156     7.7223111823     6.3889778489     4.5556445156     6.3889778489    12.8889778489    17.5556445156    17.7223111823    19.3889778489    21.3889778489    23.3889778489    26.3889778489    26.0556445156    25.2223111823    28.7223111823    36.2223111823    38.7223111823    37.0556445156    31.2223111823    28.3889778489    27.3889778489    22.2223111823    16.7223111823    16.0556445156    15.0556445156    15.3889778489    15.5556445156    12.8889778489    11.8889778489    13.0556445156    14.8889778489    13.8889778489    12.5556445156    12.0556445156    14.7223111823    14.7223111823     3.2223111823   -32.1110221511   -97.4443554844  -170.2776888177  -219.4443554844  -245.2776888177  -312.2776888177  -433.9443554844  -560.7776888177  -681.7776888177  -809.6110221511  -912.1110221511  -984.6110221511 -1009.1110221511  -979.4443554844  -884.2776888177  -821.4443554844  -771.9443554844  -725.1110221511  -657.6110221511  -589.6110221511  -562.4443554844  -517.7776888177  -306.2776888177  -104.1110221511   -56.9443554844    55.0556445156   126.8889778489   220.8889778489   260.8889778489   214.3889778489   191.5556445156   266.3889778489   415.0556445156   486.7223111823   482.3889778489   524.5556445156   618.3889778489   751.8889778489   769.7223111823   739.5556445156   897.3889778489   987.7223111823  1114.2223111823  1174.5556445156  1222.5556445156  1300.8889778489  1286.3889778489  1146.0556445156   986.7223111823   943.0556445156  1015.0556445156   992.7223111823   901.0556445156   786.3889778489   662.0556445156   575.7223111823   471.0556445156   419.0556445156   356.8889778489   323.5556445156   306.5556445156   275.2223111823   252.7223111823   300.0556445156   321.8889778489   327.8889778489   269.7223111823   246.3889778489   262.8889778489   277.5556445156   300.2223111823   355.5556445156   389.3889778489   376.0556445156   352.0556445156   309.8889778489   267.5556445156   232.7223111823   199.7223111823   155.8889778489   131.3889778489   124.0556445156   126.0556445156   119.2223111823   108.5556445156   108.2223111823   109.8889778489   105.0556445156   100.3889778489    95.8889778489    87.2223111823    79.3889778489    76.0556445156    87.0556445156    93.2223111823   102.5556445156    98.7223111823    86.7223111823    75.0556445156    61.8889778489    43.8889778489    17.5556445156    -5.9443554844   -29.9443554844   -54.7776888177   -81.4443554844  -108.6110221511  -130.6110221511  -152.1110221511  -176.2776888177  -202.2776888177  -222.2776888177  -239.9443554844  -251.6110221511  -264.4443554844  -279.7776888177  -288.7776888177  -290.4443554844  -288.4443554844  -283.9443554844  -281.4443554844  -278.6110221511  -272.4443554844  -262.1110221511  -252.7776888177  -247.6110221511  -240.7776888177  -233.9443554844  -224.1110221511  -216.6110221511  -208.4443554844  -199.2776888177  -192.9443554844  -187.6110221511  -185.2776888177  -187.2776888177  -188.2776888177  -186.4443554844  -182.7776888177  -181.4443554844  -180.4443554844  -178.7776888177  -178.1110221511  -173.7776888177  -173.1110221511  -175.2776888177  -179.4443554844  -180.6110221511  -180.4443554844  -180.2776888177  -177.7776888177  -176.1110221511  -170.9443554844  -164.1110221511  -159.6110221511  -160.1110221511  -162.1110221511  -161.4443554844  -155.4443554844  -149.6110221511  -144.4443554844  -141.6110221511  -134.7776888177  -126.7776888177  -120.1110221511  -117.6110221511  -119.4443554844  -118.7776888177  -118.4443554844  -116.6110221511  -116.6110221511  -118.4443554844  -116.7776888177  -112.9443554844  -111.4443554844  -113.1110221511  -113.7776888177  -113.1110221511  -110.7776888177  -110.6110221511  -112.6110221511  -114.2776888177  -114.2776888177  -111.4443554844  -107.9443554844  -108.7776888177  -113.6110221511  -113.2776888177  -109.7776888177  -107.4443554844  -105.4443554844  -106.4443554844  -109.4443554844  -108.7776888177  -108.9443554844  -110.2776888177  -109.7776888177  -104.9443554844   -98.4443554844   -94.2776888177   -90.7776888177   -86.1110221511   -76.7776888177   -67.9443554844   -62.7776888177   -60.2776888177   -62.2776888177   -59.2776888177   -52.4443554844   -47.2776888177   -46.2776888177   -46.2776888177   -46.4443554844   -45.6110221511   -45.7776888177   -47.2776888177   -48.9443554844   -50.9443554844   -50.4443554844   -48.2776888177   -47.6110221511   -49.2776888177   -47.1110221511   -45.4443554844   -44.4443554844   -44.4443554844   -42.9443554844   -38.2776888177   -31.7776888177   -26.9443554844   -23.4443554844   -22.4443554844   -23.9443554844   -22.9443554844   -23.9443554844   -27.7776888177   -32.6110221511   -33.1110221511   -31.7776888177   -29.6110221511   -30.7776888177   -34.7776888177   -38.7776888177   -42.7776888177   -45.2776888177   -49.6110221511   -54.6110221511   -57.1110221511   -55.9443554844   -56.6110221511   -58.1110221511   -58.9443554844   -58.4443554844   -55.7776888177   -55.1110221511   -56.4443554844   -59.1110221511   -58.2776888177   -54.9443554844   -49.6110221511   -47.4443554844   -46.2776888177   -42.7776888177   -36.2776888177   -29.7776888177   -25.4443554844   -22.6110221511   -20.7776888177   -18.2776888177   -17.7776888177   -19.1110221511   -22.4443554844   -19.2776888177   -13.6110221511    -7.9443554844    -8.4443554844   -11.4443554844   -11.4443554844    -8.2776888177    -7.6110221511    -9.7776888177   -12.1110221511   -11.7776888177    -8.6110221511    -4.2776888177    -1.6110221511    -2.1110221511    -1.2776888177    -1.6110221511    -3.6110221511    -9.1110221511   -14.2776888177   -16.1110221511   -16.2776888177   -16.9443554844   -18.9443554844   -22.1110221511   -22.4443554844   -19.7776888177   -16.2776888177   -17.7776888177   -20.6110221511   -18.7776888177   -11.7776888177    -6.1110221511    -3.9443554844    -1.9443554844     3.0556445156     9.2223111823    12.8889778489    13.0556445156    13.8889778489    17.5556445156    22.2223111823    24.5556445156    22.7223111823    23.5556445156    27.2223111823    27.5625834000    23.9028556178    20.2431278356    19.2500667200    20.2570056045    20.9306111556    19.4375500400    17.7778222578 
    7.3319989325     7.2392580731     6.6465172138     8.8871096877    12.2943688284    14.8682946357    16.6088871097    17.6828129170    20.6828129170    23.6828129170    23.8494795837    22.8494795837    23.5161462503    28.3494795837    31.3494795837    28.8494795837    22.1828129170    20.0161462503    20.5161462503    20.0161462503    15.6828129170     9.3494795837     5.0161462503     3.5161462503     3.3494795837    -1.1505204163    -6.3171870830    -7.4838537497    -4.9838537497    -3.6505204163    -2.1505204163    -1.9838537497     1.1828129170     6.6828129170    11.8494795837    13.3494795837    13.8494795837    18.1828129170    23.0161462503    26.3494795837    27.5161462503    27.0161462503    28.8494795837    29.0161462503    28.0161462503    23.6828129170    17.5161462503    14.6828129170    14.3494795837    14.0161462503    11.1828129170     6.3494795837     4.0161462503     4.8494795837     5.6828129170     4.0161462503    -1.1505204163    -2.3171870830    -1.1505204163     0.5161462503     2.3494795837     2.3494795837     1.6828129170     1.8494795837     2.1828129170    -0.3171870830    -4.4838537497    -4.9838537497    -1.6505204163     0.0161462503     0.1828129170    -1.8171870830     0.6828129170     2.3494795837     2.3494795837     2.8494795837    -1.4838537497    -3.6505204163    -1.8171870830     1.3494795837     1.6828129170    -0.9838537497    -1.1505204163     0.6828129170     0.0161462503    -6.1505204163   -13.9838537497   -16.1505204163   -16.6505204163   -16.8171870830   -17.3171870830   -20.4838537497   -20.8171870830   -18.9838537497   -17.4838537497   -19.6505204163   -24.6505204163   -25.3171870830   -23.3171870830   -21.9838537497   -21.9838537497   -19.4838537497   -15.1505204163   -10.3171870830    -7.3171870830    -5.4838537497    -6.1505204163    -5.3171870830    -2.1505204163     0.3494795837     2.0161462503     5.0161462503    11.1828129170    17.0161462503    18.1828129170    18.8494795837    19.0161462503    21.3494795837    26.3494795837    29.3494795837    30.3494795837    30.1828129170    31.6828129170    34.3494795837    36.6828129170    36.6828129170    36.0161462503    33.8494795837    33.8494795837    34.0161462503    34.1828129170    32.0161462503    32.5161462503    34.5161462503    34.3494795837    32.8494795837    29.5161462503    27.1828129170    26.0161462503    23.3494795837    19.6828129170    16.5161462503    14.8494795837    16.3494795837    17.5161462503    15.0161462503     8.1828129170     4.6828129170     5.0161462503     5.8494795837     2.8494795837    -3.4838537497    -9.1505204163   -13.4838537497   -15.4838537497   -17.4838537497   -21.6505204163   -32.3171870830   -56.8171870830   -96.9838537497  -137.9838537497  -164.1505204163  -198.1505204163  -254.3171870830  -323.4838537497  -402.4838537497  -474.1505204163  -533.4838537497  -632.4838537497  -787.4838537497  -882.9838537497  -893.8171870830  -848.8171870830  -853.9838537497  -866.3171870830  -813.3171870830  -722.9838537497  -683.4838537497  -616.9838537497  -512.4838537497  -403.4838537497  -287.1505204163  -149.1505204163   -43.6505204163   115.3494795837   462.5161462503   703.1828129170   734.8494795837   652.0161462503   618.1828129170   687.5161462503   640.3494795837   476.6828129170   409.3494795837   400.3494795837   432.3494795837   469.0161462503   519.8494795837   589.3494795837   654.8494795837   676.0161462503   569.1828129170   479.5161462503   519.3494795837   643.8494795837   787.3494795837   784.0161462503   802.0161462503   924.6828129170   975.1828129170   959.5161462503   889.8494795837   834.8494795837   747.1828129170   565.3494795837   455.0161462503   405.0161462503   333.1828129170   309.5161462503   310.5161462503   283.5161462503   235.8494795837   239.6828129170   292.8494795837   298.6828129170   286.5161462503   272.5161462503   262.0161462503   250.8494795837   271.8494795837   342.0161462503   342.5161462503   330.3494795837   336.8494795837   324.1828129170   280.8494795837   237.5161462503   205.3494795837   184.1828129170   156.8494795837   148.6828129170   168.3494795837   176.1828129170   182.1828129170   175.8494795837   151.1828129170   128.0161462503   135.6828129170   130.8494795837   121.5161462503   109.3494795837    99.6828129170    86.8494795837    73.0161462503    57.8494795837    40.8494795837    26.0161462503    14.3494795837    12.5161462503     4.6828129170    -6.3171870830   -17.8171870830   -32.6505204163   -52.6505204163   -75.4838537497   -98.8171870830  -122.9838537497  -149.4838537497  -166.4838537497  -184.8171870830  -202.1505204163  -222.3171870830  -244.8171870830  -261.1505204163  -274.3171870830  -284.8171870830  -294.6505204163  -301.8171870830  -311.8171870830  -320.1505204163  -326.1505204163  -328.9838537497  -328.4838537497  -323.1505204163  -314.8171870830  -309.8171870830  -305.4838537497  -296.9838537497  -282.1505204163  -270.6505204163  -265.1505204163  -264.1505204163  -261.8171870830  -255.3171870830  -243.1505204163  -235.3171870830  -229.1505204163  -220.8171870830  -211.3171870830  -204.8171870830  -205.8171870830  -205.1505204163  -202.6505204163  -194.1505204163  -186.4838537497  -184.4838537497  -182.8171870830  -179.3171870830  -176.4838537497  -173.3171870830  -171.6505204163  -169.6505204163  -166.4838537497  -164.6505204163  -164.8171870830  -166.4838537497  -169.4838537497  -168.9838537497  -164.9838537497  -163.8171870830  -165.9838537497  -165.8171870830  -163.1505204163  -157.4838537497  -153.6505204163  -154.4838537497  -156.3171870830  -154.9838537497  -151.4838537497  -147.1505204163  -143.1505204163  -140.6505204163  -133.3171870830  -125.4838537497  -118.4838537497  -113.6505204163  -111.3171870830  -107.4838537497  -102.4838537497   -99.6505204163   -96.3171870830   -94.6505204163   -92.4838537497   -88.3171870830   -87.3171870830   -89.6505204163   -91.3171870830   -88.3171870830   -86.4838537497   -84.4838537497   -86.1505204163   -88.4838537497   -89.4838537497   -88.3171870830   -88.6505204163   -91.6505204163   -92.4838537497   -88.6505204163   -83.8171870830   -79.1505204163   -74.8171870830   -72.1505204163   -70.9838537497   -67.8171870830   -64.3171870830   -64.3171870830   -66.9838537497   -68.1505204163   -64.3171870830   -60.8171870830   -60.3171870830   -59.3171870830   -60.8171870830   -60.9838537497   -58.9838537497   -59.6505204163   -63.6505204163   -62.1505204163   -57.6505204163   -58.1505204163   -59.8171870830   -60.3171870830   -56.9838537497   -54.8171870830   -55.6505204163   -59.6505204163   -62.9838537497   -64.9838537497   -63.1505204163   -62.3171870830   -64.9838537497   -67.1505204163   -66.1505204163   -65.9838537497   -65.6505204163   -65.6505204163   -67.6505204163   -69.1505204163   -69.1505204163   -66.4838537497   -63.4838537497   -61.9838537497   -57.9838537497   -51.1505204163   -45.4838537497   -44.8171870830   -46.3171870830   -48.8171870830   -48.8171870830   -49.4838537497   -52.3171870830   -54.4838537497   -54.8171870830   -50.6505204163   -47.1505204163   -45.8171870830   -47.3171870830   -44.8171870830   -41.8171870830   -38.1505204163   -38.3171870830   -37.4838537497   -32.6505204163   -24.3171870830   -16.8171870830   -12.9838537497   -13.4838537497   -13.3171870830    -9.3171870830    -7.4838537497    -9.8171870830   -14.1505204163   -15.8171870830   -14.9838537497   -11.9838537497   -14.4838537497   -16.6505204163   -16.3171870830   -10.9838537497    -7.4838537497    -8.8171870830   -10.1505204163    -7.3171870830    -1.9838537497     0.1828129170     1.6828129170     5.3494795837    11.6828129170    18.1828129170    22.5161462503    20.1828129170    19.5161462503    19.5161462503    21.6828129170    21.0161462503    19.3494795837    19.6828129170    22.0161462503    28.1828129170    31.3494795837    31.8494795837    26.8494795837    23.6828129170    23.0161462503    23.0161462503    19.3494795837    17.5161462503    16.8494795837    16.3494795837    16.8494795837    12.3494795837     6.3494795837     3.3494795837     3.1088871097    -0.7983720310    -4.8722978383    -6.6128903123    -4.0201494529    -1.9274085935    -2.8346677342    -5.4085935415 
    1.1638644249    -3.9475580464    -7.8923138511    -9.6704029891   -11.4484921270   -13.7265812650   -17.1713370696   -18.9494262076   -18.2827595410   -21.6160928743   -24.9494262076   -27.2827595410   -27.6160928743   -28.7827595410   -29.9494262076   -28.6160928743   -22.6160928743   -13.4494262076    -6.2827595410    -4.6160928743    -4.6160928743    -2.6160928743     4.0505737924    10.2172404590    12.7172404590    12.8839071257    15.0505737924    20.5505737924    21.3839071257    18.3839071257    15.7172404590    13.7172404590    10.5505737924     5.8839071257     0.5505737924    -2.1160928743    -0.9494262076    -0.4494262076    -3.9494262076    -9.9494262076   -16.1160928743   -18.7827595410   -18.6160928743   -19.9494262076   -20.4494262076   -19.7827595410   -19.1160928743   -15.4494262076   -10.7827595410    -9.2827595410    -7.6160928743    -6.2827595410    -6.9494262076    -7.9494262076   -10.4494262076   -13.1160928743   -12.7827595410   -10.2827595410    -6.2827595410    -4.6160928743    -5.9494262076    -5.2827595410    -1.1160928743     1.2172404590    -0.4494262076    -0.6160928743    -0.7827595410     2.0505737924     4.7172404590     4.7172404590     4.3839071257     6.8839071257    11.3839071257    14.0505737924    10.0505737924     4.7172404590     2.0505737924     2.7172404590     1.3839071257    -3.6160928743   -10.2827595410   -15.1160928743   -16.4494262076   -19.2827595410   -23.7827595410   -28.1160928743   -29.1160928743   -29.4494262076   -28.1160928743   -26.9494262076   -25.7827595410   -21.6160928743   -16.1160928743   -14.2827595410   -14.4494262076   -15.4494262076   -11.2827595410    -4.6160928743     0.3839071257     3.0505737924     6.3839071257    13.7172404590    20.8839071257    26.2172404590    26.2172404590    21.3839071257    18.2172404590    16.0505737924    13.7172404590    10.5505737924     7.7172404590     9.2172404590    11.3839071257    12.0505737924    12.2172404590    12.3839071257    12.5505737924    10.3839071257     5.3839071257    -0.9494262076    -5.4494262076    -5.7827595410    -4.1160928743    -2.1160928743    -2.1160928743    -3.2827595410    -2.4494262076    -0.9494262076    -1.2827595410    -5.1160928743   -11.6160928743   -15.2827595410   -15.1160928743   -12.7827595410    -7.1160928743    -3.4494262076    -1.2827595410     0.0505737924     3.3839071257     5.3839071257     5.2172404590     7.8839071257    11.2172404590    15.0505737924    16.3839071257    16.7172404590    18.5505737924    23.2172404590    23.3839071257    19.0505737924    11.0505737924     5.2172404590     1.3839071257   -16.7827595410   -63.9494262076  -112.9494262076  -134.1160928743  -144.4494262076  -189.4494262076  -283.9494262076  -378.6160928743  -444.9494262076  -487.9494262076  -528.2827595410  -549.2827595410  -558.2827595410  -583.4494262076  -615.4494262076  -632.4494262076  -617.9494262076  -635.6160928743  -727.2827595410  -783.2827595410  -755.6160928743  -636.9494262076  -438.4494262076  -220.2827595410    -0.4494262076   149.2172404590   209.2172404590   192.0505737924   158.3839071257   165.8839071257   193.7172404590   259.3839071257   145.0505737924    92.8839071257   245.2172404590   348.0505737924   341.2172404590   319.0505737924   328.8839071257   337.0505737924   183.2172404590   -14.2827595410     6.7172404590   189.0505737924   396.3839071257   484.0505737924   586.0505737924   645.7172404590   856.7172404590  1044.8839071257  1086.7172404590  1108.8839071257  1117.8839071257   980.2172404590   800.7172404590   724.0505737924   796.5505737924   936.0505737924   912.0505737924   750.0505737924   538.5505737924   439.0505737924   325.5505737924   204.7172404590    89.2172404590     4.5505737924   -51.7827595410   -74.1160928743   -58.1160928743    57.7172404590   141.8839071257   111.5505737924    61.5505737924    24.7172404590    24.0505737924    60.3839071257   126.2172404590   170.8839071257   202.5505737924   231.8839071257   266.5505737924   280.8839071257   281.3839071257   257.2172404590   218.8839071257   190.8839071257   167.5505737924   136.8839071257   111.5505737924    99.7172404590    79.0505737924    53.5505737924    31.2172404590    15.2172404590    -1.9494262076   -19.7827595410   -36.4494262076   -47.1160928743   -54.9494262076   -61.2827595410   -64.7827595410   -78.2827595410   -91.7827595410  -102.1160928743  -109.6160928743  -120.7827595410  -132.2827595410  -140.9494262076  -151.1160928743  -160.2827595410  -167.2827595410  -177.2827595410  -190.9494262076  -200.1160928743  -211.6160928743  -221.2827595410  -230.4494262076  -237.7827595410  -236.2827595410  -235.2827595410  -236.7827595410  -239.1160928743  -239.4494262076  -237.6160928743  -230.9494262076  -225.7827595410  -222.6160928743  -220.6160928743  -213.6160928743  -205.7827595410  -195.7827595410  -189.1160928743  -185.7827595410  -181.1160928743  -177.9494262076  -174.6160928743  -173.1160928743  -169.6160928743  -165.6160928743  -159.2827595410  -156.1160928743  -154.4494262076  -155.4494262076  -152.7827595410  -147.7827595410  -145.1160928743  -145.9494262076  -150.1160928743  -150.6160928743  -147.6160928743  -144.9494262076  -142.9494262076  -142.2827595410  -141.6160928743  -139.4494262076  -137.6160928743  -138.4494262076  -139.1160928743  -137.2827595410  -135.1160928743  -135.7827595410  -137.9494262076  -136.9494262076  -133.1160928743  -127.1160928743  -122.7827595410  -123.9494262076  -125.9494262076  -122.2827595410  -113.9494262076  -107.9494262076  -108.7827595410  -111.6160928743  -111.1160928743  -105.7827595410  -101.1160928743   -98.9494262076   -98.1160928743   -95.6160928743   -91.1160928743   -88.9494262076   -87.4494262076   -83.4494262076   -77.2827595410   -72.6160928743   -71.9494262076   -74.9494262076   -77.6160928743   -75.2827595410   -74.6160928743   -76.2827595410   -78.2827595410   -79.6160928743   -80.1160928743   -79.6160928743   -78.9494262076   -80.6160928743   -83.7827595410   -83.7827595410   -79.9494262076   -78.2827595410   -78.2827595410   -78.4494262076   -72.7827595410   -65.4494262076   -57.4494262076   -51.7827595410   -48.6160928743   -45.2827595410   -40.1160928743   -37.7827595410   -38.1160928743   -37.1160928743   -34.6160928743   -31.4494262076   -31.6160928743   -33.1160928743   -34.1160928743   -32.4494262076   -31.1160928743   -30.2827595410   -32.4494262076   -35.4494262076   -37.6160928743   -34.9494262076   -32.4494262076   -33.2827595410   -36.2827595410   -37.6160928743   -36.6160928743   -39.4494262076   -43.1160928743   -46.6160928743   -46.6160928743   -42.9494262076   -39.9494262076   -41.6160928743   -43.1160928743   -44.6160928743   -43.1160928743   -42.7827595410   -45.1160928743   -46.7827595410   -44.2827595410   -40.1160928743   -38.7827595410   -38.6160928743   -41.2827595410   -39.6160928743   -36.6160928743   -35.7827595410   -38.6160928743   -42.4494262076   -42.4494262076   -37.6160928743   -33.9494262076   -33.4494262076   -31.9494262076   -27.6160928743   -20.7827595410   -15.2827595410   -13.7827595410   -14.1160928743   -12.6160928743   -12.4494262076   -14.1160928743   -16.7827595410   -19.9494262076   -19.2827595410   -19.4494262076   -21.4494262076   -23.1160928743   -26.4494262076   -28.2827595410   -27.7827595410   -28.9494262076   -33.4494262076   -34.7827595410   -31.7827595410   -25.1160928743   -20.1160928743   -19.1160928743   -18.7827595410   -15.2827595410   -11.2827595410    -6.9494262076    -4.1160928743    -5.9494262076    -4.7827595410    -1.1160928743     2.0505737924     0.5505737924    -1.9494262076    -3.9494262076    -3.9494262076    -4.2827595410    -6.4494262076    -8.2827595410    -8.6160928743    -7.6160928743    -8.1160928743   -10.6160928743   -14.2827595410   -13.4494262076   -11.2827595410    -9.7827595410   -10.6160928743   -11.6160928743    -8.7827595410    -4.2827595410    -1.1160928743    -4.2827595410    -6.7827595410    -7.2827595410    -5.2827595410    -4.9494262076    -7.1160928743    -9.1160928743    -8.6160928743    -5.4494262076    -5.5046704030    -7.8932479317   -10.1151587937    -9.6704029891    -9.8923138511   -11.1142247131   -13.5028022418   -11.5580464371 
   -3.0795241914    -3.8846565090    -4.6897888265    -5.6615878107    -8.9667201283   -13.7718524459   -15.7436514301   -16.0487837477   -19.5487837477   -23.5487837477   -28.2154504143   -32.3821170810   -35.0487837477   -40.2154504143   -44.0487837477   -46.3821170810   -48.0487837477   -50.0487837477   -52.0487837477   -54.7154504143   -55.0487837477   -51.3821170810   -46.8821170810   -46.5487837477   -46.3821170810   -43.5487837477   -38.8821170810   -33.8821170810   -30.5487837477   -27.0487837477   -22.3821170810   -15.8821170810    -8.2154504143    -2.2154504143    -0.0487837477     1.1178829190     2.6178829190     4.2845495857     3.9512162523     2.9512162523     0.7845495857     0.6178829190     3.2845495857     1.7845495857    -2.5487837477    -7.2154504143   -11.0487837477   -12.8821170810   -17.5487837477   -22.3821170810   -26.5487837477   -27.2154504143   -25.0487837477   -24.7154504143   -29.0487837477   -31.8821170810   -30.0487837477   -29.2154504143   -32.0487837477   -35.3821170810   -34.2154504143   -28.3821170810   -23.0487837477   -21.3821170810   -21.3821170810   -20.3821170810   -15.5487837477   -11.3821170810   -11.8821170810   -14.2154504143   -13.3821170810    -9.5487837477    -5.7154504143    -3.7154504143    -3.8821170810    -2.8821170810    -1.8821170810    -1.2154504143    -1.5487837477    -1.7154504143    -0.7154504143    -0.2154504143     0.9512162523     0.2845495857    -2.0487837477    -5.2154504143    -5.3821170810    -3.7154504143    -2.0487837477    -1.0487837477    -0.2154504143     1.7845495857     2.7845495857    -0.3821170810    -7.0487837477   -12.3821170810   -14.5487837477   -14.3821170810   -18.5487837477   -23.2154504143   -25.5487837477   -20.0487837477   -15.7154504143   -16.7154504143   -23.8821170810   -29.7154504143   -30.2154504143   -29.2154504143   -30.7154504143   -33.0487837477   -33.7154504143   -32.0487837477   -28.8821170810   -27.7154504143   -25.7154504143   -21.8821170810   -16.2154504143   -17.2154504143   -19.8821170810   -24.8821170810   -26.0487837477   -24.7154504143   -23.3821170810   -24.7154504143   -26.5487837477   -23.8821170810   -20.0487837477   -17.7154504143   -20.2154504143   -26.0487837477   -28.7154504143   -30.7154504143   -30.8821170810   -30.3821170810   -31.5487837477   -30.0487837477   -25.0487837477   -20.2154504143   -18.2154504143   -20.3821170810   -21.7154504143   -22.8821170810   -27.0487837477   -32.5487837477   -35.3821170810   -31.0487837477   -26.3821170810   -30.3821170810   -50.3821170810   -80.2154504143  -107.2154504143  -137.8821170810  -185.8821170810  -239.8821170810  -278.3821170810  -301.8821170810  -313.0487837477  -315.7154504143  -297.8821170810  -273.7154504143  -275.8821170810  -317.7154504143  -360.8821170810  -402.8821170810  -489.0487837477  -594.5487837477  -632.8821170810  -589.5487837477  -564.5487837477  -664.8821170810  -766.0487837477  -780.0487837477  -673.0487837477  -557.7154504143  -480.8821170810  -420.7154504143  -304.0487837477  -269.2154504143  -333.5487837477  -358.8821170810  -230.5487837477    29.1178829190   208.2845495857   259.2845495857   315.9512162523   497.6178829190   606.2845495857   589.9512162523   393.2845495857   152.2845495857    88.4512162523   147.7845495857   104.2845495857   151.9512162523   381.4512162523   588.7845495857   679.1178829190   610.4512162523   588.7845495857   649.4512162523   730.1178829190   726.9512162523   752.6178829190   854.1178829190   964.6178829190  1097.7845495857  1103.9512162523  1026.1178829190  1019.6178829190  1000.7845495857   864.7845495857   718.6178829190   563.6178829190   534.9512162523   499.6178829190   443.2845495857   389.2845495857   408.9512162523   449.6178829190   439.4512162523   444.2845495857   449.7845495857   440.4512162523   389.4512162523   335.9512162523   334.6178829190   370.2845495857   406.2845495857   471.4512162523   462.4512162523   422.1178829190   365.7845495857   321.1178829190   288.2845495857   259.4512162523   231.2845495857   221.4512162523   216.6178829190   198.6178829190   190.6178829190   184.2845495857   164.9512162523   139.4512162523   110.1178829190    75.9512162523    47.6178829190    22.9512162523     8.6178829190   -15.0487837477   -39.7154504143   -58.7154504143   -70.0487837477   -76.0487837477   -88.0487837477  -105.5487837477  -125.3821170810  -144.8821170810  -159.2154504143  -169.0487837477  -178.7154504143  -186.2154504143  -193.0487837477  -197.3821170810  -206.5487837477  -217.7154504143  -227.7154504143  -240.8821170810  -256.7154504143  -267.8821170810  -282.0487837477  -291.7154504143  -284.8821170810  -275.2154504143  -271.8821170810  -274.3821170810  -290.8821170810  -297.3821170810  -291.0487837477  -283.5487837477  -276.7154504143  -267.2154504143  -253.8821170810  -236.8821170810  -224.0487837477  -218.2154504143  -206.8821170810  -193.8821170810  -191.3821170810  -191.2154504143  -192.5487837477  -191.8821170810  -171.8821170810  -154.5487837477  -151.7154504143  -154.3821170810  -156.2154504143  -156.5487837477  -155.5487837477  -157.7154504143  -163.2154504143  -166.3821170810  -167.7154504143  -165.7154504143  -164.5487837477  -167.8821170810  -168.3821170810  -162.2154504143  -156.3821170810  -157.0487837477  -160.7154504143  -163.7154504143  -166.3821170810  -166.3821170810  -170.7154504143  -174.7154504143  -172.3821170810  -166.8821170810  -162.0487837477  -163.8821170810  -168.0487837477  -169.0487837477  -170.8821170810  -172.3821170810  -174.5487837477  -174.7154504143  -172.5487837477  -169.7154504143  -165.2154504143  -163.3821170810  -162.7154504143  -160.3821170810  -157.7154504143  -156.0487837477  -154.2154504143  -153.3821170810  -150.3821170810  -144.2154504143  -137.3821170810  -136.7154504143  -139.5487837477  -141.8821170810  -140.2154504143  -136.5487837477  -132.7154504143  -130.7154504143  -128.2154504143  -125.0487837477  -122.5487837477  -122.7154504143  -126.0487837477  -125.7154504143  -123.8821170810  -120.2154504143  -118.2154504143  -115.0487837477  -110.5487837477  -104.7154504143  -101.7154504143  -100.2154504143  -102.0487837477  -102.8821170810   -99.8821170810   -95.8821170810   -91.0487837477   -89.3821170810   -88.5487837477   -86.5487837477   -83.0487837477   -82.0487837477   -82.2154504143   -82.2154504143   -80.7154504143   -79.5487837477   -77.8821170810   -79.0487837477   -79.2154504143   -75.2154504143   -72.3821170810   -70.5487837477   -73.8821170810   -74.8821170810   -73.0487837477   -70.2154504143   -68.0487837477   -67.8821170810   -66.8821170810   -64.7154504143   -60.7154504143   -59.2154504143   -63.2154504143   -65.8821170810   -65.0487837477   -65.0487837477   -64.5487837477   -67.7154504143   -68.8821170810   -67.2154504143   -63.0487837477   -61.2154504143   -64.0487837477   -67.0487837477   -67.5487837477   -65.7154504143   -67.2154504143   -68.7154504143   -66.0487837477   -59.7154504143   -53.5487837477   -51.8821170810   -54.5487837477   -54.7154504143   -51.7154504143   -46.5487837477   -42.2154504143   -41.3821170810   -40.2154504143   -37.7154504143   -32.7154504143   -30.5487837477   -29.5487837477   -28.7154504143   -24.0487837477   -19.3821170810   -17.2154504143   -16.2154504143   -13.3821170810    -7.7154504143    -2.0487837477    -1.5487837477    -6.5487837477    -9.0487837477    -7.7154504143    -3.7154504143    -2.7154504143    -5.7154504143    -6.5487837477    -5.7154504143    -6.2154504143    -9.8821170810   -15.3821170810   -16.0487837477   -13.5487837477   -12.8821170810   -13.7154504143   -15.5487837477   -13.2154504143    -8.0487837477    -4.2154504143    -5.7154504143    -9.8821170810   -10.0487837477    -8.5487837477    -5.3821170810    -3.8821170810    -6.3821170810    -8.7154504143   -11.7154504143   -14.8821170810   -18.3821170810   -23.8821170810   -26.3821170810   -26.5487837477   -28.3821170810   -32.7154504143   -34.7154504143   -34.0487837477   -33.3821170810   -33.2154504143   -33.8821170810   -37.5487837477   -38.2154504143   -35.7154504143   -31.7154504143   -29.4103180968   -26.9385191125   -23.1333867950   -19.3282544774   -18.1897888265   -17.8846565090   -15.4128575247   -12.7743918738 
    8.1191619963     8.4842540699     9.3493461436    10.3811048839    11.9128636242    13.9446223646    17.1430477715    19.3414731785    13.8414731785    11.0081398452    10.6748065119    11.0081398452     8.6748065119     8.5081398452    13.1748065119    19.8414731785    26.3414731785    28.1748065119    27.3414731785    24.6748065119    21.6748065119    20.6748065119    18.3414731785    14.0081398452    11.0081398452    11.6748065119    13.1748065119    11.6748065119     8.6748065119     5.6748065119     3.6748065119     2.1748065119    -2.8251934881    -7.4918601548    -8.3251934881    -5.1585268215    -1.6585268215    -2.9918601548    -6.3251934881    -7.4918601548    -3.8251934881    -2.8251934881    -6.1585268215   -10.9918601548   -11.3251934881    -6.8251934881    -0.9918601548     0.5081398452     0.8414731785     2.5081398452     3.6748065119     4.3414731785     4.6748065119     5.5081398452     8.1748065119    15.5081398452    20.3414731785    20.3414731785    17.0081398452    16.5081398452    16.5081398452    15.0081398452    10.3414731785     4.5081398452    -1.1585268215    -2.8251934881    -2.9918601548    -4.8251934881    -8.6585268215   -11.3251934881   -11.6585268215   -16.1585268215   -22.6585268215   -25.6585268215   -24.8251934881   -21.8251934881   -19.6585268215   -17.6585268215   -16.9918601548   -13.3251934881    -6.1585268215    -1.9918601548    -0.9918601548    -3.3251934881    -4.4918601548    -1.3251934881     2.1748065119     5.0081398452     7.1748065119     9.0081398452    13.1748065119    15.8414731785    17.8414731785    15.6748065119    13.5081398452    15.6748065119    19.1748065119    20.3414731785    17.8414731785    19.1748065119    23.1748065119    25.3414731785    26.8414731785    26.0081398452    24.1748065119    23.3414731785    23.0081398452    21.8414731785    16.6748065119    12.1748065119    14.6748065119    14.8414731785     9.0081398452     3.6748065119     4.1748065119     6.6748065119     8.1748065119     4.8414731785    -3.3251934881    -7.6585268215    -6.4918601548    -3.1585268215    -4.6585268215   -10.3251934881   -13.4918601548   -12.3251934881   -12.6585268215   -13.1585268215   -15.1585268215   -16.1585268215   -15.1585268215   -16.8251934881   -21.4918601548   -24.9918601548   -24.6585268215   -24.1585268215   -23.6585268215   -27.1585268215   -31.6585268215   -32.1585268215   -28.9918601548   -27.3251934881   -28.9918601548   -32.4918601548   -31.9918601548   -29.8251934881   -31.4918601548   -34.6585268215   -39.1585268215   -39.3251934881   -36.8251934881   -32.6585268215   -33.6585268215   -35.8251934881   -35.8251934881   -32.6585268215   -28.6585268215   -26.8251934881   -27.6585268215   -28.4918601548   -25.9918601548   -21.4918601548   -18.6585268215   -15.1585268215   -11.8251934881    -9.6585268215    -9.8251934881   -12.1585268215   -15.3251934881   -11.8251934881    -7.6585268215    -5.1585268215    -6.3251934881    -7.3251934881    -4.1585268215     2.1748065119     5.3414731785     0.6748065119   -20.6585268215   -63.6585268215  -107.3251934881  -166.6585268215  -234.4918601548  -329.9918601548  -470.1585268215  -630.8251934881  -808.1585268215 -1000.3251934881 -1216.9918601548 -1394.3251934881 -1481.6585268215 -1528.3251934881 -1616.4918601548 -1668.9918601548 -1570.4918601548 -1432.4918601548 -1299.4918601548 -1075.3251934881  -726.9918601548  -328.4918601548    33.5081398452   305.1748065119   501.5081398452   680.8414731785   817.6748065119   943.0081398452  1078.0081398452  1170.8414731785  1328.1748065119  1514.5081398452  1548.5081398452  1465.6748065119  1352.3414731785  1164.8414731785   994.8414731785   832.6748065119   719.5081398452   591.3414731785   562.5081398452   676.1748065119   867.6748065119   953.6748065119   915.6748065119   921.0081398452   944.1748065119   867.1748065119   769.1748065119   785.1748065119   801.3414731785   802.3414731785   623.8414731785   498.6748065119   426.3414731785   444.1748065119   435.5081398452   376.3414731785   345.1748065119   372.1748065119   397.5081398452   394.8414731785   362.8414731785   321.3414731785   306.5081398452   276.6748065119   302.8414731785   353.5081398452   449.5081398452   453.0081398452   434.8414731785   435.6748065119   446.8414731785   394.5081398452   313.3414731785   261.5081398452   240.5081398452   197.1748065119   127.6748065119    93.1748065119    84.8414731785    91.1748065119    94.8414731785    78.6748065119    61.6748065119    53.8414731785    55.3414731785    71.8414731785    91.3414731785   104.1748065119   105.0081398452    94.1748065119    74.6748065119    62.6748065119    67.3414731785    88.3414731785    93.5081398452    87.1748065119    69.5081398452    59.3414731785    51.1748065119    38.0081398452    21.3414731785    -0.1585268215   -19.4918601548   -30.1585268215   -39.9918601548   -48.6585268215   -56.8251934881   -66.4918601548   -81.4918601548   -98.4918601548  -110.8251934881  -124.4918601548  -141.8251934881  -161.8251934881  -187.1585268215  -205.8251934881  -224.1585268215  -238.3251934881  -252.4918601548  -268.1585268215  -279.9918601548  -286.9918601548  -294.8251934881  -306.6585268215  -315.6585268215  -317.9918601548  -319.3251934881  -322.3251934881  -325.3251934881  -326.3251934881  -320.6585268215  -315.9918601548  -314.3251934881  -314.8251934881  -311.8251934881  -304.8251934881  -299.4918601548  -297.6585268215  -297.8251934881  -293.1585268215  -284.6585268215  -280.6585268215  -279.1585268215  -278.3251934881  -277.6585268215  -272.9918601548  -269.1585268215  -268.4918601548  -266.4918601548  -263.6585268215  -257.3251934881  -252.6585268215  -251.9918601548  -250.9918601548  -244.3251934881  -237.3251934881  -233.6585268215  -232.8251934881  -232.4918601548  -230.9918601548  -226.6585268215  -223.1585268215  -223.9918601548  -226.6585268215  -229.4918601548  -228.4918601548  -226.8251934881  -226.6585268215  -224.1585268215  -217.6585268215  -209.8251934881  -203.6585268215  -201.3251934881  -199.8251934881  -195.1585268215  -189.8251934881  -182.6585268215  -178.1585268215  -174.9918601548  -169.4918601548  -162.9918601548  -157.9918601548  -157.1585268215  -156.4918601548  -154.3251934881  -154.4918601548  -157.1585268215  -159.9918601548  -161.9918601548  -161.8251934881  -160.1585268215  -157.8251934881  -160.3251934881  -163.8251934881  -163.3251934881  -158.3251934881  -153.3251934881  -153.9918601548  -154.4918601548  -154.9918601548  -152.9918601548  -149.3251934881  -145.4918601548  -143.9918601548  -140.3251934881  -135.4918601548  -131.4918601548  -128.1585268215  -125.6585268215  -120.9918601548  -116.1585268215  -113.6585268215  -112.1585268215  -108.4918601548  -105.3251934881   -99.3251934881   -95.1585268215   -94.3251934881   -96.6585268215   -96.4918601548   -93.4918601548   -89.1585268215   -90.6585268215   -94.6585268215   -96.4918601548   -95.9918601548   -94.6585268215   -94.3251934881   -93.8251934881   -93.8251934881   -90.9918601548   -88.1585268215   -86.9918601548   -87.1585268215   -83.8251934881   -76.4918601548   -69.4918601548   -68.1585268215   -65.6585268215   -61.1585268215   -53.4918601548   -48.1585268215   -45.1585268215   -46.3251934881   -46.8251934881   -44.9918601548   -43.9918601548   -46.1585268215   -46.9918601548   -42.9918601548   -40.3251934881   -39.6585268215   -42.1585268215   -43.3251934881   -42.3251934881   -40.1585268215   -40.3251934881   -43.1585268215   -45.8251934881   -41.4918601548   -36.6585268215   -33.3251934881   -31.9918601548   -32.4918601548   -33.8251934881   -35.9918601548   -36.6585268215   -39.8251934881   -42.6585268215   -43.1585268215   -41.9918601548   -40.9918601548   -42.6585268215   -43.8251934881   -43.4918601548   -44.8251934881   -46.4918601548   -48.6585268215   -50.1585268215   -47.8251934881   -43.8251934881   -40.4918601548   -38.4918601548   -37.8251934881   -36.3251934881   -34.1585268215   -31.8251934881   -29.1585268215   -26.3251934881   -22.3251934881   -16.3251934881    -9.6585268215    -6.3251934881    -3.3569522285    -0.0553776354     2.0795302909     2.7144382172     1.8493461436     1.8175874033     4.6191619963     7.4207365893 
    3.4499599680     2.8888444089     2.4943955164     3.0999466240     5.7054977315     7.8110488391     7.4165999466     5.5221510542     6.6888177208     8.0221510542     7.8554843875     4.6888177208     0.5221510542     0.3554843875    -0.3111822792    -3.6445156125    -6.6445156125    -9.3111822792    -9.1445156125    -7.1445156125    -6.6445156125    -7.6445156125    -7.4778489458    -4.9778489458    -4.8111822792    -7.4778489458   -11.4778489458   -11.1445156125    -6.3111822792    -1.3111822792     1.1888177208     3.3554843875     3.0221510542     5.0221510542     6.0221510542     3.8554843875    -0.4778489458    -3.8111822792    -3.8111822792    -0.3111822792     3.3554843875     5.1888177208     8.0221510542    10.8554843875    12.8554843875    10.3554843875     7.3554843875     5.0221510542     8.6888177208    12.6888177208    13.8554843875    11.5221510542    10.5221510542    14.5221510542    19.5221510542    19.1888177208    16.0221510542    13.8554843875    13.6888177208    16.5221510542    16.5221510542    16.3554843875    16.3554843875    19.8554843875    20.8554843875    19.0221510542    15.5221510542    15.1888177208    17.1888177208    18.3554843875    14.8554843875     8.1888177208     5.1888177208     4.3554843875     3.1888177208    -0.4778489458    -4.4778489458    -6.1445156125    -4.1445156125    -2.3111822792    -3.1445156125    -7.4778489458   -10.6445156125    -8.4778489458    -8.1445156125   -11.9778489458   -15.1445156125   -15.6445156125   -15.4778489458   -14.1445156125   -15.6445156125   -19.6445156125   -21.1445156125   -18.4778489458   -18.4778489458   -22.8111822792   -24.6445156125   -24.9778489458   -21.4778489458   -20.3111822792   -19.8111822792   -20.1445156125   -19.6445156125   -16.6445156125   -13.4778489458   -13.1445156125   -12.6445156125   -11.1445156125    -7.9778489458    -7.4778489458    -5.9778489458    -4.4778489458    -4.3111822792     2.0221510542     6.0221510542     7.0221510542     6.5221510542     7.8554843875    12.3554843875    15.3554843875    17.0221510542    16.1888177208    14.5221510542    15.0221510542    15.8554843875    15.1888177208    10.1888177208     6.6888177208     6.6888177208     6.0221510542     4.3554843875     1.1888177208    -2.3111822792    -3.3111822792    -5.4778489458    -7.9778489458   -12.8111822792   -14.8111822792   -12.1445156125    -8.9778489458    -9.6445156125   -13.9778489458   -13.4778489458   -11.1445156125   -10.6445156125   -14.1445156125   -18.3111822792   -20.3111822792   -18.4778489458   -17.9778489458   -20.3111822792   -22.1445156125   -21.8111822792   -24.3111822792   -43.8111822792   -77.6445156125  -121.6445156125  -163.9778489458  -215.8111822792  -281.6445156125  -355.6445156125  -426.9778489458  -530.4778489458  -643.9778489458  -752.8111822792  -903.8111822792  -976.4778489458  -938.1445156125  -847.9778489458  -774.4778489458  -741.1445156125  -753.6445156125  -672.4778489458  -593.1445156125  -553.3111822792  -409.6445156125  -313.4778489458  -365.3111822792  -297.1445156125   -78.6445156125   134.3554843875   254.0221510542   203.8554843875   133.3554843875    10.1888177208    26.3554843875   229.5221510542   444.5221510542   456.0221510542   438.0221510542   531.1888177208   547.8554843875   627.3554843875   833.6888177208   855.8554843875   748.0221510542   700.6888177208   794.8554843875  1007.1888177208  1177.3554843875  1349.5221510542  1330.0221510542  1131.1888177208   976.8554843875   915.1888177208   863.3554843875   812.8554843875   781.6888177208   698.1888177208   608.1888177208   651.0221510542   715.8554843875   671.1888177208   539.3554843875   474.8554843875   420.1888177208   352.5221510542   352.0221510542   388.1888177208   414.1888177208   454.8554843875   514.8554843875   503.5221510542   453.1888177208   457.8554843875   487.3554843875   472.1888177208   424.1888177208   427.3554843875   514.3554843875   503.0221510542   434.0221510542   366.3554843875   302.6888177208   258.8554843875   222.0221510542   188.6888177208   157.8554843875   140.5221510542   138.3554843875   126.0221510542   105.6888177208    95.6888177208    80.8554843875    67.3554843875    52.0221510542    38.6888177208    20.8554843875    10.5221510542     2.3554843875   -14.9778489458   -27.4778489458   -33.1445156125   -38.9778489458   -51.4778489458   -75.3111822792   -98.6445156125  -115.4778489458  -133.1445156125  -146.1445156125  -164.1445156125  -186.6445156125  -208.9778489458  -225.8111822792  -240.4778489458  -257.6445156125  -278.3111822792  -298.1445156125  -312.9778489458  -323.8111822792  -334.9778489458  -345.1445156125  -355.1445156125  -361.4778489458  -365.9778489458  -368.6445156125  -371.6445156125  -372.4778489458  -368.4778489458  -363.4778489458  -356.4778489458  -349.1445156125  -340.3111822792  -329.3111822792  -315.6445156125  -303.9778489458  -293.9778489458  -284.3111822792  -272.8111822792  -261.4778489458  -255.1445156125  -252.9778489458  -250.8111822792  -244.6445156125  -238.3111822792  -234.1445156125  -233.9778489458  -235.3111822792  -232.8111822792  -229.6445156125  -227.6445156125  -226.4778489458  -223.4778489458  -220.4778489458  -219.6445156125  -219.8111822792  -217.9778489458  -214.3111822792  -208.1445156125  -203.3111822792  -199.8111822792  -198.9778489458  -194.8111822792  -184.4778489458  -175.3111822792  -171.3111822792  -169.1445156125  -166.6445156125  -161.8111822792  -154.1445156125  -149.9778489458  -150.1445156125  -149.8111822792  -144.9778489458  -138.9778489458  -137.4778489458  -138.1445156125  -136.9778489458  -133.9778489458  -132.8111822792  -134.4778489458  -137.3111822792  -140.6445156125  -141.1445156125  -141.1445156125  -144.9778489458  -148.6445156125  -148.8111822792  -144.6445156125  -142.8111822792  -143.4778489458  -144.3111822792  -142.6445156125  -138.3111822792  -134.9778489458  -135.4778489458  -137.6445156125  -136.1445156125  -131.3111822792  -125.4778489458  -124.3111822792  -123.8111822792  -122.1445156125  -117.9778489458  -114.1445156125  -110.6445156125  -110.3111822792  -107.4778489458  -103.8111822792  -101.1445156125  -101.6445156125  -102.8111822792  -100.6445156125   -96.9778489458   -93.9778489458   -94.1445156125   -94.8111822792   -93.9778489458   -90.4778489458   -86.1445156125   -84.9778489458   -87.1445156125   -87.1445156125   -84.8111822792   -82.3111822792   -80.6445156125   -78.6445156125   -73.6445156125   -67.3111822792   -59.6445156125   -54.9778489458   -53.9778489458   -52.8111822792   -49.6445156125   -44.1445156125   -41.9778489458   -43.6445156125   -44.9778489458   -41.4778489458   -37.4778489458   -36.8111822792   -38.6445156125   -42.1445156125   -46.1445156125   -45.9778489458   -49.3111822792   -55.3111822792   -57.6445156125   -56.3111822792   -52.6445156125   -53.8111822792   -54.9778489458   -52.9778489458   -46.8111822792   -42.9778489458   -42.3111822792   -41.3111822792   -39.9778489458   -33.8111822792   -25.1445156125   -21.8111822792   -21.9778489458   -21.3111822792   -18.9778489458   -16.4778489458   -17.9778489458   -18.6445156125   -19.1445156125   -16.6445156125   -12.8111822792   -11.4778489458   -13.4778489458   -17.6445156125   -17.8111822792   -18.1445156125   -19.6445156125   -23.1445156125   -25.1445156125   -22.4778489458   -17.6445156125   -13.6445156125   -12.1445156125   -10.4778489458    -7.8111822792    -4.9778489458    -7.4778489458   -11.9778489458   -14.1445156125   -11.1445156125    -7.1445156125    -4.4778489458    -4.8111822792    -3.8111822792     3.5221510542     8.3554843875     8.3554843875     2.8554843875     0.6888177208     1.6888177208     3.1888177208     2.0221510542     0.5221510542     2.3554843875     8.1888177208    14.8554843875    18.0221510542    18.8554843875    19.6888177208    23.8554843875    27.0221510542    27.5221510542    26.0221510542    28.3554843875    32.6888177208    34.5221510542    36.0221510542    33.8554843875    34.3554843875    36.1888177208    35.1888177208    30.0221510542    23.5221510542    20.3554843875    20.4165999466    17.6443821724    11.0388310649     6.9332799573     5.8277288497     5.3888444089     3.1166266346     0.3444088604 
    1.4498797113     1.8331996792    -1.6168136862    -7.0668270516    -9.5168404170   -10.4668537824   -11.7502004812   -14.5335471799   -19.2002138466   -19.5335471799   -19.7002138466   -22.3668805132   -26.0335471799   -25.2002138466   -23.3668805132   -23.5335471799   -28.0335471799   -34.7002138466   -38.5335471799   -37.0335471799   -33.8668805132   -33.8668805132   -34.0335471799   -32.3668805132   -27.0335471799   -24.3668805132   -25.8668805132   -27.2002138466   -26.0335471799   -25.7002138466   -25.7002138466   -25.8668805132   -25.8668805132   -19.7002138466   -10.5335471799    -4.2002138466    -4.5335471799    -7.0335471799    -9.3668805132   -10.7002138466   -11.5335471799   -12.8668805132   -14.0335471799   -12.5335471799    -9.7002138466    -6.0335471799    -6.7002138466   -11.3668805132   -14.7002138466   -17.0335471799   -17.8668805132   -20.2002138466   -22.2002138466   -19.0335471799   -13.2002138466    -8.7002138466    -8.5335471799    -9.8668805132    -9.2002138466    -6.3668805132    -4.2002138466    -5.0335471799    -3.5335471799     0.6331194868     6.6331194868    10.9664528201    11.2997861534     9.9664528201     9.9664528201     9.9664528201     9.7997861534     9.4664528201     7.4664528201     6.9664528201     9.7997861534    10.4664528201     8.4664528201     5.6331194868     3.9664528201     5.9664528201     9.2997861534     9.9664528201     7.4664528201     6.9664528201     8.9664528201    12.6331194868    12.7997861534    11.4664528201    12.4664528201    15.2997861534    15.2997861534    14.4664528201    12.1331194868    11.7997861534    13.1331194868    13.9664528201    10.4664528201     7.4664528201     8.2997861534    11.7997861534    13.6331194868    12.1331194868     8.2997861534     5.9664528201     5.7997861534     5.6331194868     3.9664528201    -1.7002138466    -3.8668805132    -3.0335471799    -3.5335471799    -6.0335471799    -7.5335471799    -6.8668805132    -3.0335471799    -1.2002138466    -1.8668805132    -4.2002138466    -2.0335471799     4.7997861534    12.2997861534    15.2997861534    16.1331194868    17.6331194868    20.4664528201    21.4664528201    20.9664528201    20.1331194868    17.9664528201    15.9664528201    12.7997861534     8.6331194868     4.4664528201     2.4664528201     1.4664528201    -3.2002138466   -11.5335471799   -18.8668805132   -23.3668805132   -22.8668805132   -21.0335471799   -17.8668805132   -17.5335471799   -17.7002138466   -13.8668805132   -11.0335471799   -11.0335471799   -13.0335471799   -15.3668805132   -15.8668805132   -16.2002138466   -19.7002138466   -25.3668805132   -27.5335471799   -25.3668805132   -23.3668805132   -27.0335471799   -34.2002138466   -38.7002138466   -46.3668805132   -55.8668805132   -60.2002138466   -65.5335471799   -79.0335471799  -100.0335471799  -125.2002138466  -138.3668805132  -146.0335471799  -162.2002138466  -190.7002138466  -240.2002138466  -286.7002138466  -352.7002138466  -412.0335471799  -440.5335471799  -488.7002138466  -557.8668805132  -662.2002138466  -760.2002138466  -782.2002138466  -809.0335471799  -843.3668805132  -849.5335471799  -824.7002138466  -798.8668805132  -696.8668805132  -523.3668805132  -384.3668805132  -210.3668805132   -57.2002138466   -36.0335471799   -31.3668805132    47.7997861534   261.4664528201   492.6331194868   635.1331194868   757.4664528201   778.7997861534   723.9664528201   653.2997861534   591.1331194868   477.4664528201   394.4664528201   310.9664528201   307.6331194868   332.9664528201   435.9664528201   568.6331194868   648.7997861534   611.9664528201   523.6331194868   491.2997861534   469.4664528201   509.4664528201   606.2997861534   705.7997861534   773.1331194868   767.1331194868   690.7997861534   680.7997861534   613.2997861534   560.2997861534   542.4664528201   513.2997861534   465.1331194868   413.2997861534   394.4664528201   331.7997861534   293.6331194868   304.4664528201   290.4664528201   258.6331194868   264.2997861534   338.1331194868   396.2997861534   400.9664528201   368.9664528201   309.1331194868   238.2997861534   190.9664528201   171.2997861534   163.9664528201   147.1331194868   143.2997861534   144.7997861534   142.7997861534   146.6331194868   149.1331194868   133.6331194868   112.4664528201    94.4664528201    97.9664528201    99.4664528201   104.6331194868   113.1331194868   121.7997861534   120.9664528201   120.2997861534   122.1331194868   122.9664528201   118.4664528201   112.7997861534   100.6331194868    86.9664528201    90.9664528201    91.1331194868    89.4664528201    80.1331194868    70.2997861534    57.6331194868    42.9664528201    23.6331194868     0.9664528201   -21.2002138466   -39.8668805132   -57.8668805132   -78.8668805132   -99.8668805132  -120.3668805132  -140.7002138466  -161.2002138466  -181.3668805132  -205.3668805132  -224.0335471799  -240.8668805132  -259.3668805132  -277.2002138466  -293.7002138466  -314.7002138466  -323.2002138466  -325.7002138466  -327.8668805132  -328.0335471799  -323.8668805132  -317.2002138466  -310.3668805132  -307.3668805132  -307.2002138466  -305.7002138466  -302.5335471799  -295.5335471799  -288.7002138466  -285.5335471799  -277.7002138466  -257.7002138466  -247.8668805132  -245.0335471799  -245.5335471799  -243.5335471799  -239.8668805132  -235.8668805132  -231.8668805132  -227.2002138466  -222.2002138466  -214.3668805132  -208.7002138466  -207.0335471799  -205.7002138466  -204.2002138466  -205.2002138466  -210.0335471799  -215.2002138466  -220.2002138466  -221.3668805132  -221.5335471799  -219.5335471799  -218.0335471799  -219.8668805132  -221.2002138466  -218.2002138466  -215.5335471799  -215.3668805132  -214.7002138466  -212.0335471799  -205.3668805132  -199.8668805132  -197.0335471799  -193.5335471799  -189.2002138466  -184.5335471799  -181.7002138466  -182.7002138466  -187.2002138466  -189.2002138466  -187.5335471799  -183.3668805132  -181.0335471799  -180.2002138466  -177.8668805132  -173.3668805132  -169.8668805132  -166.7002138466  -164.3668805132  -161.5335471799  -155.5335471799  -150.0335471799  -146.2002138466  -143.0335471799  -139.7002138466  -134.7002138466  -130.5335471799  -130.7002138466  -132.8668805132  -134.0335471799  -133.2002138466  -132.2002138466  -132.2002138466  -132.8668805132  -131.3668805132  -127.3668805132  -126.3668805132  -126.7002138466  -128.0335471799  -128.2002138466  -123.5335471799  -119.5335471799  -119.8668805132  -122.2002138466  -121.5335471799  -114.8668805132  -107.8668805132  -105.7002138466  -105.3668805132  -102.8668805132   -96.7002138466   -95.3668805132   -97.7002138466  -102.8668805132  -105.0335471799  -103.8668805132  -102.3668805132  -102.3668805132  -101.3668805132   -97.7002138466   -92.0335471799   -89.3668805132   -89.7002138466   -89.3668805132   -87.7002138466   -85.5335471799   -85.0335471799   -80.7002138466   -74.2002138466   -66.3668805132   -58.0335471799   -53.8668805132   -53.8668805132   -55.2002138466   -55.7002138466   -54.3668805132   -53.3668805132   -55.0335471799   -59.0335471799   -61.2002138466   -61.7002138466   -60.5335471799   -63.3668805132   -70.5335471799   -74.3668805132   -73.2002138466   -72.2002138466   -71.2002138466   -70.3668805132   -67.3668805132   -62.7002138466   -58.2002138466   -57.0335471799   -59.0335471799   -58.2002138466   -54.3668805132   -49.7002138466   -50.0335471799   -48.8668805132   -46.0335471799   -43.8668805132   -46.0335471799   -47.8668805132   -50.0335471799   -51.8668805132   -53.7002138466   -55.3668805132   -60.2002138466   -66.5335471799   -66.0335471799   -61.7002138466   -57.8668805132   -55.3668805132   -53.2002138466   -53.7002138466   -52.3668805132   -51.7002138466   -53.0335471799   -53.3668805132   -51.0335471799   -51.2002138466   -50.0335471799   -44.5335471799   -38.7002138466   -39.0335471799   -33.8668805132   -27.3668805132   -24.2002138466   -26.2002138466   -24.8668805132   -18.8668805132   -11.0335471799    -4.7002138466     4.2997861534     9.6331194868    11.4664528201    18.2997861534    23.4664528201    22.4664528201    21.2497995188    29.1998128843    29.3164929163    24.2665062817    20.0498529805    20.9998663459    20.7832130446    19.7332264101 
    1.5024019215    -0.9973311983    -3.3303976515    -2.9967974380    -1.9965305578    -1.9962636776    -3.9959967974    -4.6623965839    -4.6623965839    -4.8290632506    -7.1623965839    -6.3290632506    -3.8290632506    -0.8290632506     1.6709367494     1.3376034161     0.0042700827     2.1709367494     6.3376034161     6.8376034161     4.1709367494     0.0042700827    -1.8290632506    -2.1623965839    -2.9957299173    -3.3290632506    -6.9957299173   -10.6623965839   -11.8290632506   -12.1623965839   -16.1623965839   -20.6623965839   -21.8290632506   -20.3290632506   -22.1623965839   -24.4957299173   -25.8290632506   -23.9957299173   -19.9957299173   -19.4957299173   -20.4957299173   -24.1623965839   -22.3290632506   -16.1623965839   -11.8290632506    -7.4957299173    -2.6623965839     3.1709367494     9.0042700827    11.3376034161    13.0042700827    14.1709367494    17.0042700827    21.3376034161    24.0042700827    25.3376034161    21.3376034161    21.1709367494    22.0042700827    21.5042700827    18.3376034161    12.1709367494     8.5042700827     8.1709367494    10.5042700827     9.1709367494     7.8376034161     8.3376034161    10.8376034161    12.3376034161    11.1709367494     8.5042700827    12.3376034161    13.6709367494    12.0042700827     7.6709367494     5.3376034161     5.1709367494     6.3376034161     9.0042700827     6.6709367494     2.5042700827     1.0042700827    -0.6623965839    -4.1623965839    -9.4957299173   -13.3290632506   -11.3290632506   -10.4957299173    -9.6623965839    -7.8290632506    -7.4957299173    -7.1623965839    -5.9957299173    -7.4957299173   -14.1623965839   -20.9957299173   -21.1623965839   -19.4957299173   -15.4957299173   -13.3290632506   -12.6623965839   -10.1623965839    -6.9957299173    -2.3290632506    -0.1623965839     0.5042700827     4.8376034161    10.5042700827    15.8376034161    20.8376034161    24.0042700827    29.0042700827    32.8376034161    36.1709367494    36.3376034161    36.8376034161    40.3376034161    44.1709367494    45.3376034161    43.8376034161    42.0042700827    40.8376034161    42.6709367494    46.1709367494    45.0042700827    40.3376034161    36.6709367494    35.1709367494    32.5042700827    26.3376034161    18.3376034161    10.5042700827     3.6709367494    -1.1623965839    -6.9957299173   -12.6623965839   -14.6623965839   -14.4957299173   -17.6623965839   -25.4957299173   -30.6623965839   -26.9957299173   -19.4957299173   -14.9957299173   -11.9957299173   -10.1623965839    -6.9957299173    -3.3290632506    -0.8290632506    -4.3290632506    -7.3290632506    -9.1623965839    -9.8290632506   -12.1623965839   -13.9957299173   -15.3290632506   -18.1623965839   -23.9957299173   -30.8290632506   -38.4957299173   -45.8290632506   -48.8290632506   -48.3290632506   -47.6623965839   -49.6623965839   -49.4957299173   -48.9957299173   -47.3290632506   -47.4957299173   -45.3290632506   -42.4957299173   -37.9957299173   -31.1623965839   -30.3290632506   -44.1623965839   -72.4957299173  -116.8290632506  -174.9957299173  -230.8290632506  -289.6623965839  -360.6623965839  -470.1623965839  -610.9957299173  -711.3290632506  -842.8290632506 -1036.6623965839 -1204.4957299173 -1267.9957299173 -1249.1623965839 -1185.3290632506 -1132.4957299173 -1135.6623965839 -1150.3290632506 -1036.8290632506  -856.8290632506  -718.6623965839  -587.6623965839  -302.9957299173    46.0042700827   310.1709367494   454.0042700827   636.0042700827   885.5042700827   968.5042700827  1015.0042700827  1045.5042700827  1018.3376034161  1049.0042700827  1130.8376034161  1099.0042700827   976.1709367494   908.3376034161   913.3376034161   847.5042700827   627.3376034161   459.6709367494   568.5042700827   684.0042700827   657.0042700827   687.5042700827   730.3376034161   705.0042700827   678.8376034161   660.3376034161   708.6709367494   750.1709367494   749.0042700827   758.5042700827   679.5042700827   594.8376034161   595.6709367494   578.6709367494   426.3376034161   327.5042700827   290.1709367494   288.0042700827   236.1709367494   234.5042700827   302.6709367494   368.6709367494   338.8376034161   292.0042700827   317.1709367494   332.0042700827   350.6709367494   341.0042700827   371.3376034161   410.5042700827   469.1709367494   482.6709367494   461.5042700827   410.3376034161   364.6709367494   320.6709367494   297.1709367494   279.8376034161   264.1709367494   260.8376034161   255.6709367494   232.6709367494   240.3376034161   245.0042700827   242.0042700827   233.6709367494   210.6709367494   187.3376034161   186.0042700827   180.3376034161   164.3376034161   145.3376034161   119.8376034161    94.5042700827    75.5042700827    63.8376034161    39.8376034161    19.1709367494    -3.3290632506   -29.4957299173   -52.1623965839   -78.6623965839  -103.4957299173  -121.8290632506  -140.3290632506  -153.1623965839  -171.3290632506  -196.4957299173  -221.9957299173  -243.8290632506  -264.9957299173  -288.3290632506  -309.3290632506  -325.4957299173  -335.9957299173  -345.9957299173  -357.1623965839  -363.1623965839  -361.4957299173  -356.6623965839  -352.9957299173  -351.3290632506  -348.9957299173  -343.3290632506  -336.6623965839  -328.3290632506  -324.4957299173  -318.1623965839  -308.3290632506  -298.8290632506  -291.4957299173  -289.8290632506  -287.1623965839  -279.9957299173  -274.4957299173  -269.8290632506  -265.6623965839  -262.9957299173  -257.6623965839  -255.1623965839  -251.3290632506  -247.1623965839  -241.1623965839  -235.3290632506  -227.4957299173  -219.9957299173  -213.6623965839  -204.6623965839  -195.1623965839  -186.4957299173  -180.8290632506  -178.8290632506  -177.3290632506  -174.1623965839  -170.8290632506  -163.3290632506  -160.8290632506  -164.1623965839  -164.3290632506  -162.6623965839  -162.9957299173  -163.4957299173  -165.1623965839  -165.3290632506  -164.6623965839  -165.1623965839  -167.1623965839  -168.3290632506  -168.4957299173  -166.4957299173  -164.4957299173  -165.8290632506  -165.6623965839  -164.6623965839  -164.3290632506  -161.1623965839  -161.3290632506  -164.4957299173  -163.9957299173  -163.8290632506  -163.6623965839  -161.9957299173  -157.9957299173  -152.9957299173  -145.4957299173  -138.4957299173  -135.1623965839  -137.6623965839  -140.9957299173  -140.8290632506  -140.8290632506  -144.1623965839  -146.1623965839  -144.8290632506  -142.3290632506  -139.8290632506  -138.6623965839  -139.6623965839  -140.6623965839  -138.9957299173  -137.3290632506  -138.1623965839  -140.9957299173  -136.1623965839  -127.3290632506  -119.4957299173  -115.3290632506  -113.4957299173  -111.6623965839  -107.1623965839  -102.6623965839  -101.6623965839  -103.8290632506  -105.9957299173  -105.8290632506  -105.8290632506  -109.4957299173  -114.9957299173  -115.6623965839  -115.8290632506  -116.4957299173  -119.3290632506  -121.6623965839  -122.8290632506  -121.6623965839  -121.8290632506  -124.9957299173  -127.8290632506  -126.1623965839  -120.8290632506  -114.9957299173  -114.6623965839  -115.4957299173  -112.9957299173  -110.3290632506  -107.3290632506  -104.9957299173  -103.9957299173  -102.3290632506   -95.3290632506   -87.6623965839   -82.3290632506   -79.4957299173   -75.6623965839   -72.1623965839   -69.1623965839   -70.4957299173   -70.1623965839   -65.9957299173   -59.9957299173   -56.1623965839   -54.6623965839   -56.4957299173   -55.3290632506   -50.3290632506   -48.4957299173   -50.1623965839   -53.1623965839   -53.8290632506   -51.8290632506   -48.9957299173   -50.3290632506   -53.6623965839   -54.9957299173   -55.3290632506   -56.9957299173   -60.3290632506   -64.1623965839   -62.3290632506   -58.9957299173   -59.1623965839   -61.1623965839   -61.3290632506   -56.4957299173   -46.6623965839   -40.1623965839   -36.9957299173   -34.9957299173   -29.1623965839   -21.1623965839   -11.3290632506    -4.9957299173     2.1709367494    10.1709367494    17.3376034161    22.6709367494    26.8376034161    29.5042700827    33.1709367494    36.1709367494    36.5042700827    34.3376034161    31.5042700827    32.6709367494    33.3373365359    31.6704029891    26.3368027756    22.8365358954    21.0029356819    19.1693354684    15.1690685882    10.6688017080 
  -13.7709832134   -13.6159072742   -10.7941646683    -8.4724220623    -9.8173461231   -12.4956035172   -12.5071942446   -10.3521183053   -10.8521183053   -11.1854516387   -10.3521183053    -6.0187849720     0.1478816947     2.3145483613     0.9812150280     1.3145483613     2.6478816947     0.3145483613    -4.0187849720    -9.8521183053   -12.5187849720   -10.0187849720    -7.6854516387    -6.5187849720    -8.8521183053    -9.5187849720    -6.5187849720    -4.0187849720    -4.1854516387    -5.1854516387    -4.1854516387    -3.3521183053    -2.1854516387    -1.5187849720    -4.0187849720    -5.1854516387    -3.6854516387    -3.3521183053    -8.5187849720   -16.0187849720   -21.5187849720   -23.1854516387   -25.5187849720   -33.0187849720   -39.8521183053   -42.6854516387   -40.8521183053   -36.1854516387   -34.3521183053   -35.0187849720   -31.5187849720   -26.3521183053   -20.8521183053   -17.5187849720   -16.5187849720   -15.0187849720   -10.0187849720    -7.0187849720    -7.6854516387    -7.0187849720    -7.1854516387    -7.1854516387    -7.8521183053   -11.1854516387   -16.0187849720   -18.5187849720   -22.0187849720   -25.3521183053   -31.3521183053   -37.5187849720   -37.5187849720   -35.0187849720   -33.3521183053   -33.3521183053   -33.5187849720   -31.5187849720   -26.5187849720   -23.6854516387   -22.3521183053   -23.5187849720   -22.5187849720   -17.1854516387   -10.6854516387    -6.6854516387    -6.1854516387    -7.1854516387    -9.0187849720    -9.5187849720   -12.1854516387   -15.5187849720   -17.8521183053   -17.1854516387   -14.3521183053   -11.1854516387   -11.8521183053   -11.1854516387    -8.5187849720    -9.0187849720   -11.8521183053   -17.0187849720   -18.6854516387   -16.5187849720   -12.5187849720   -12.0187849720   -12.3521183053   -13.5187849720   -11.5187849720    -9.3521183053   -11.8521183053   -17.5187849720   -22.0187849720   -21.8521183053   -18.8521183053   -18.3521183053   -19.6854516387   -18.3521183053   -15.1854516387   -12.3521183053   -12.0187849720   -14.3521183053   -15.0187849720   -12.5187849720    -9.3521183053   -10.0187849720   -10.1854516387    -8.3521183053    -2.6854516387    -0.8521183053    -4.0187849720    -7.3521183053    -7.0187849720    -3.3521183053     0.6478816947     0.6478816947    -3.8521183053    -5.1854516387    -5.3521183053    -4.1854516387    -8.1854516387   -12.3521183053   -13.6854516387   -12.8521183053   -12.1854516387   -12.5187849720   -15.6854516387   -16.1854516387   -15.0187849720   -15.1854516387   -16.3521183053   -18.1854516387   -16.3521183053   -11.6854516387    -6.3521183053    -5.6854516387    -5.1854516387    -4.3521183053    -2.3521183053    -1.6854516387    -4.6854516387    -7.8521183053    -8.0187849720    -6.6854516387    -6.3521183053    -6.8521183053   -11.5187849720   -13.8521183053   -13.6854516387   -12.1854516387   -14.1854516387   -15.6854516387   -14.3521183053   -10.1854516387    -9.0187849720    -7.6854516387    -7.5187849720    -7.8521183053    -2.6854516387     2.6478816947     4.6478816947     2.9812150280     4.1478816947     6.6478816947     7.6478816947    -0.3521183053   -20.8521183053   -57.3521183053  -109.1854516387  -181.0187849720  -270.3521183053  -388.0187849720  -529.6854516387  -652.5187849720  -751.0187849720  -836.6854516387  -943.5187849720 -1061.5187849720 -1165.8521183053 -1201.0187849720 -1107.3521183053  -955.5187849720  -832.1854516387  -785.1854516387  -705.6854516387  -596.8521183053  -536.6854516387  -419.3521183053  -176.8521183053   -26.5187849720   -34.6854516387   -23.0187849720    15.4812150280   186.4812150280   433.4812150280   581.9812150280   638.8145483613   630.4812150280   540.4812150280   550.1478816947   490.1478816947   490.4812150280   612.1478816947   722.3145483613   739.4812150280   812.6478816947  1022.1478816947  1210.3145483613  1348.6478816947  1317.9812150280  1187.8145483613  1147.9812150280  1072.6478816947   976.3145483613  1032.1478816947  1091.4812150280  1150.1478816947  1135.1478816947  1105.3145483613  1048.8145483613   957.3145483613   899.6478816947   789.4812150280   690.8145483613   640.3145483613   607.9812150280   596.3145483613   532.9812150280   491.4812150280   487.8145483613   451.4812150280   406.3145483613   403.6478816947   406.6478816947   367.9812150280   333.4812150280   326.6478816947   306.6478816947   327.8145483613   321.8145483613   310.4812150280   335.3145483613   352.4812150280   357.9812150280   337.1478816947   299.1478816947   263.3145483613   224.6478816947   202.4812150280   178.4812150280   151.8145483613   122.4812150280    92.8145483613    64.6478816947    41.6478816947    19.1478816947    -4.8521183053   -32.6854516387   -61.8521183053   -90.0187849720  -119.0187849720  -137.0187849720  -153.6854516387  -168.6854516387  -188.3521183053  -210.6854516387  -233.3521183053  -250.5187849720  -264.8521183053  -279.3521183053  -295.1854516387  -313.6854516387  -329.1854516387  -344.6854516387  -358.0187849720  -371.1854516387  -381.6854516387  -391.3521183053  -400.5187849720  -406.5187849720  -415.5187849720  -427.8521183053  -432.6854516387  -430.5187849720  -427.3521183053  -425.3521183053  -423.6854516387  -419.0187849720  -412.3521183053  -402.1854516387  -394.6854516387  -387.3521183053  -378.8521183053  -368.5187849720  -354.0187849720  -343.5187849720  -333.0187849720  -321.0187849720  -310.1854516387  -301.8521183053  -295.0187849720  -292.8521183053  -290.3521183053  -282.6854516387  -272.8521183053  -266.5187849720  -262.6854516387  -257.0187849720  -251.1854516387  -243.8521183053  -241.0187849720  -240.8521183053  -239.1854516387  -233.1854516387  -228.5187849720  -228.1854516387  -229.8521183053  -229.1854516387  -223.0187849720  -218.1854516387  -215.3521183053  -214.5187849720  -213.0187849720  -209.6854516387  -206.5187849720  -210.0187849720  -214.5187849720  -215.3521183053  -212.1854516387  -210.8521183053  -210.6854516387  -207.6854516387  -202.6854516387  -194.1854516387  -188.1854516387  -184.0187849720  -185.3521183053  -184.1854516387  -179.5187849720  -176.0187849720  -172.8521183053  -168.5187849720  -162.3521183053  -152.1854516387  -144.3521183053  -137.3521183053  -132.5187849720  -130.1854516387  -126.8521183053  -124.6854516387  -125.1854516387  -128.3521183053  -128.6854516387  -124.5187849720  -120.5187849720  -122.1854516387  -128.6854516387  -134.3521183053  -137.1854516387  -140.5187849720  -143.6854516387  -147.3521183053  -148.0187849720  -144.8521183053  -141.1854516387  -138.6854516387  -138.8521183053  -134.8521183053  -126.5187849720  -119.6854516387  -116.5187849720  -114.6854516387  -106.8521183053   -97.5187849720   -89.8521183053   -85.1854516387   -84.3521183053   -83.5187849720   -82.6854516387   -82.3521183053   -83.8521183053   -87.1854516387   -85.1854516387   -81.3521183053   -78.3521183053   -80.3521183053   -84.1854516387   -86.5187849720   -88.3521183053   -88.3521183053   -89.1854516387   -90.8521183053   -89.1854516387   -84.8521183053   -79.8521183053   -78.5187849720   -77.3521183053   -77.0187849720   -78.6854516387   -82.5187849720   -89.6854516387   -96.6854516387  -100.1854516387   -97.1854516387   -93.6854516387   -90.6854516387   -88.0187849720   -83.3521183053   -78.8521183053   -73.1854516387   -69.8521183053   -67.1854516387   -64.5187849720   -57.8521183053   -50.5187849720   -46.8521183053   -40.0187849720   -32.0187849720   -24.8521183053   -17.0187849720   -12.0187849720   -10.0187849720    -7.5187849720    -5.8521183053    -3.3521183053    -5.3521183053    -9.1854516387    -9.0187849720    -8.0187849720    -7.5187849720    -7.6854516387    -8.0187849720    -9.3521183053    -8.0187849720    -4.5187849720    -5.5187849720    -7.1854516387    -8.3521183053    -8.8521183053    -8.5187849720    -8.1854516387    -9.6854516387   -11.0187849720   -12.3521183053   -11.6854516387   -12.0187849720   -15.5187849720   -16.5187849720   -17.0187849720   -18.1854516387   -21.1854516387   -23.6854516387   -24.0187849720   -20.3521183053   -18.0187849720   -18.1738609113   -20.4956035172   -19.1506794564   -15.1390887290   -12.2941646683   -11.2825739408   -10.7709832134    -6.9260591527 
   -2.7968457632    -6.7372360331    -8.8442929698    -8.2846832398    -9.8917401764   -12.9987971131   -16.9391873830   -17.5462443197   -19.8795776530   -24.0462443197   -30.0462443197   -31.3795776530   -31.2129109864   -33.2129109864   -37.0462443197   -38.0462443197   -32.2129109864   -28.5462443197   -27.3795776530   -29.7129109864   -33.0462443197   -32.5462443197   -28.2129109864   -24.8795776530   -22.2129109864   -21.7129109864   -18.3795776530   -13.2129109864    -9.8795776530    -8.8795776530    -7.0462443197    -4.8795776530    -1.3795776530     0.9537556803     1.2870890136     1.1204223470     4.7870890136     9.4537556803    11.6204223470     9.4537556803     6.4537556803     9.4537556803    15.7870890136    19.4537556803    16.4537556803    12.9537556803    12.1204223470    11.9537556803     9.4537556803     7.9537556803     9.2870890136    11.7870890136    14.4537556803    12.4537556803     7.9537556803     6.1204223470     8.4537556803    10.7870890136     8.2870890136     3.1204223470    -0.0462443197    -0.3795776530     0.6204223470    -1.2129109864    -4.8795776530    -8.3795776530   -10.7129109864   -10.8795776530   -12.2129109864   -15.7129109864   -19.5462443197   -22.5462443197   -24.0462443197   -26.2129109864   -29.8795776530   -33.2129109864   -31.7129109864   -27.7129109864   -26.7129109864   -25.5462443197   -24.2129109864   -20.3795776530   -15.3795776530   -12.3795776530   -12.3795776530   -11.2129109864    -5.8795776530    -0.8795776530    -1.7129109864    -4.7129109864    -4.7129109864    -1.0462443197     0.9537556803    -0.2129109864    -1.7129109864    -3.5462443197    -2.0462443197     2.4537556803     1.7870890136    -2.5462443197    -4.3795776530    -3.0462443197    -2.2129109864    -1.8795776530    -2.7129109864    -4.2129109864    -3.5462443197    -0.8795776530     0.1204223470    -2.0462443197    -5.2129109864    -5.2129109864    -3.8795776530    -5.8795776530    -6.7129109864    -7.0462443197    -5.2129109864    -0.7129109864     2.2870890136     1.4537556803    -0.0462443197     0.2870890136     1.9537556803    -0.2129109864    -3.3795776530    -5.5462443197    -5.0462443197    -4.5462443197    -6.3795776530   -11.0462443197   -17.3795776530   -18.5462443197   -17.5462443197   -19.7129109864   -24.0462443197   -26.2129109864   -23.3795776530   -16.8795776530   -14.7129109864   -16.3795776530   -16.5462443197   -12.8795776530    -7.8795776530    -3.7129109864    -3.3795776530    -3.2129109864     0.1204223470     4.4537556803     6.2870890136     5.4537556803     5.1204223470     6.6204223470     6.9537556803     5.7870890136     4.4537556803     5.1204223470    10.4537556803    15.2870890136    17.2870890136    15.6204223470    14.7870890136    15.7870890136    19.6204223470    20.4537556803    17.6204223470    16.6204223470    19.9537556803    23.7870890136    21.7870890136    12.4537556803    -3.2129109864   -28.7129109864   -84.5462443197  -148.0462443197  -196.7129109864  -238.5462443197  -284.7129109864  -337.2129109864  -401.8795776530  -473.0462443197  -505.5462443197  -524.0462443197  -558.8795776530  -588.7129109864  -607.3795776530  -665.7129109864  -795.5462443197  -829.0462443197  -733.2129109864  -584.3795776530  -489.5462443197  -404.7129109864  -249.5462443197   -85.7129109864    55.7870890136   226.6204223470   358.7870890136   401.7870890136   304.9537556803   310.4537556803   369.6204223470   445.1204223470   567.1204223470   641.1204223470   613.7870890136   491.6204223470   494.2870890136   477.2870890136   366.7870890136   298.7870890136   309.4537556803   250.9537556803   197.9537556803   207.4537556803   437.1204223470   567.7870890136   621.1204223470   653.7870890136   734.6204223470   793.9537556803   835.9537556803   872.4537556803   795.2870890136   777.1204223470   819.2870890136   810.9537556803   740.4537556803   743.6204223470   737.1204223470   719.2870890136   572.4537556803   459.7870890136   409.9537556803   413.9537556803   387.6204223470   340.7870890136   317.7870890136   348.1204223470   405.4537556803   423.1204223470   407.7870890136   388.7870890136   380.9537556803   344.9537556803   308.4537556803   304.2870890136   367.7870890136   387.9537556803   363.6204223470   327.4537556803   303.4537556803   283.4537556803   259.1204223470   232.4537556803   200.9537556803   176.4537556803   152.1204223470   139.1204223470   130.9537556803   120.6204223470   114.9537556803   104.1204223470    86.9537556803    66.1204223470    41.6204223470    23.7870890136     8.9537556803    -3.0462443197   -17.5462443197   -32.0462443197   -41.5462443197   -51.3795776530   -58.8795776530   -71.3795776530   -89.2129109864  -104.3795776530  -118.3795776530  -135.0462443197  -149.5462443197  -164.0462443197  -177.3795776530  -189.7129109864  -200.0462443197  -211.7129109864  -226.3795776530  -238.5462443197  -250.0462443197  -259.8795776530  -270.5462443197  -281.7129109864  -289.7129109864  -296.5462443197  -296.3795776530  -294.3795776530  -296.3795776530  -295.3795776530  -290.5462443197  -285.3795776530  -282.3795776530  -279.8795776530  -274.7129109864  -267.3795776530  -256.0462443197  -248.7129109864  -245.2129109864  -239.7129109864  -229.5462443197  -217.3795776530  -209.8795776530  -205.0462443197  -199.2129109864  -190.3795776530  -181.5462443197  -173.5462443197  -169.3795776530  -168.2129109864  -168.2129109864  -168.0462443197  -168.3795776530  -165.5462443197  -159.7129109864  -153.2129109864  -148.5462443197  -147.2129109864  -149.2129109864  -152.0462443197  -151.0462443197  -146.3795776530  -143.5462443197  -146.0462443197  -147.2129109864  -143.3795776530  -138.5462443197  -135.0462443197  -136.8795776530  -140.0462443197  -141.3795776530  -141.3795776530  -142.8795776530  -146.0462443197  -146.3795776530  -142.5462443197  -139.7129109864  -144.3795776530  -153.2129109864  -157.0462443197  -154.8795776530  -151.7129109864  -149.7129109864  -147.8795776530  -146.3795776530  -142.7129109864  -137.7129109864  -131.7129109864  -128.0462443197  -124.3795776530  -120.7129109864  -118.8795776530  -116.2129109864  -116.0462443197  -113.8795776530  -109.8795776530  -106.2129109864  -105.2129109864  -105.5462443197  -108.8795776530  -108.0462443197  -105.5462443197  -103.5462443197  -105.8795776530  -107.7129109864  -105.8795776530  -102.5462443197   -98.3795776530   -98.0462443197   -96.8795776530   -92.5462443197   -85.7129109864   -80.2129109864   -77.7129109864   -74.7129109864   -69.8795776530   -66.0462443197   -64.5462443197   -67.7129109864   -71.8795776530   -72.3795776530   -71.0462443197   -69.3795776530   -71.3795776530   -74.0462443197   -72.5462443197   -69.2129109864   -69.2129109864   -73.7129109864   -77.2129109864   -78.5462443197   -75.7129109864   -71.7129109864   -70.0462443197   -67.0462443197   -61.0462443197   -53.0462443197   -48.2129109864   -47.2129109864   -46.3795776530   -43.3795776530   -39.3795776530   -37.2129109864   -36.5462443197   -35.2129109864   -31.3795776530   -26.5462443197   -25.7129109864   -28.2129109864   -32.7129109864   -33.3795776530   -31.3795776530   -34.5462443197   -40.0462443197   -46.2129109864   -49.0462443197   -43.3795776530   -40.7129109864   -41.0462443197   -42.5462443197   -40.8795776530   -37.5462443197   -37.8795776530   -39.7129109864   -40.3795776530   -36.8795776530   -33.3795776530   -31.5462443197   -31.0462443197   -31.5462443197   -29.2129109864   -24.2129109864   -26.8795776530   -27.2129109864   -27.5462443197   -24.7129109864   -21.5462443197   -20.2129109864   -20.5462443197   -21.3795776530   -19.0462443197   -14.8795776530   -13.5462443197   -15.8795776530   -16.7129109864   -14.5462443197    -8.8795776530    -6.0462443197    -4.5462443197    -5.8795776530    -5.2129109864    -5.2129109864    -4.3795776530    -6.8795776530    -7.3795776530    -4.3795776530    -2.3795776530    -3.2129109864    -6.0462443197    -6.3795776530    -2.8795776530     4.7870890136     6.6204223470     5.1204223470     3.2870890136     4.7870890136     8.7870890136     9.0608126170     6.6678695536     6.9415931569     8.3819834269     8.8223736969     8.0960973002     7.2031542368     9.1435445068 
