   -7.4836523126    -4.0188729399    -1.0540935672    -0.5893141946    -0.2912014886     2.0069112174     6.4716905901    10.7698032961    14.7698032961    17.9364699628    23.6031366295    29.2698032961    30.9364699628    31.2698032961    31.6031366295    34.4364699628    36.7698032961    36.6031366295    33.6031366295    31.2698032961    29.7698032961    27.9364699628    24.4364699628    18.9364699628    14.9364699628    13.7698032961    12.6031366295     8.2698032961     3.4364699628     0.6031366295     1.9364699628     2.6031366295    -0.3968633705    -6.7301967039    -9.8968633705    -9.0635300372    -5.8968633705    -5.8968633705    -8.5635300372    -9.7301967039    -9.0635300372    -5.8968633705    -5.7301967039    -6.7301967039    -6.7301967039    -3.8968633705    -1.8968633705    -2.8968633705    -2.2301967039     1.9364699628     7.9364699628    14.1031366295    17.1031366295    19.4364699628    22.9364699628    27.2698032961    32.1031366295    31.6031366295    29.2698032961    28.4364699628    31.4364699628    34.4364699628    35.7698032961    35.6031366295    35.2698032961    36.7698032961    39.1031366295    38.6031366295    34.4364699628    31.2698032961    32.2698032961    35.7698032961    36.1031366295    35.4364699628    36.7698032961    39.6031366295    42.7698032961    43.7698032961    41.4364699628    40.4364699628    42.1031366295    44.9364699628    44.7698032961    42.4364699628    44.1031366295    49.1031366295    52.7698032961    52.6031366295    51.7698032961    53.1031366295    56.4364699628    62.7698032961    66.2698032961    67.9364699628    72.1031366295    79.1031366295    86.4364699628    91.2698032961    93.9364699628    97.7698032961   103.9364699628   109.6031366295   114.2698032961   119.7698032961   125.6031366295   131.9364699628   137.7698032961   140.7698032961   141.7698032961   142.6031366295   145.4364699628   148.2698032961   147.4364699628   144.4364699628   142.9364699628   144.4364699628   144.9364699628   143.1031366295   138.1031366295   132.7698032961   132.4364699628   134.7698032961   135.1031366295   131.6031366295   128.7698032961   131.9364699628   136.9364699628   138.4364699628   137.6031366295   138.1031366295   143.6031366295   148.2698032961   150.9364699628   151.6031366295   154.1031366295   156.7698032961   159.2698032961   156.4364699628   153.6031366295   151.9364699628   151.6031366295   153.6031366295   155.6031366295   154.9364699628   152.4364699628   150.1031366295   150.4364699628   154.4364699628   161.6031366295   168.4364699628   168.6031366295   157.7698032961   139.6031366295   132.9364699628   130.1031366295   131.9364699628   117.1031366295    73.9364699628    21.9364699628    -9.0635300372   -50.8968633705  -151.0635300372  -315.5635300372  -405.7301967039  -418.7301967039  -385.5635300372  -361.2301967039  -444.7301967039  -568.2301967039  -647.7301967039  -694.2301967039  -703.7301967039  -711.3968633705  -634.0635300372  -593.8968633705  -631.2301967039  -530.0635300372  -346.3968633705  -151.7301967039   -57.2301967039   -39.3968633705  -120.8968633705  -116.7301967039   -29.0635300372    96.1031366295   256.4364699628   307.6031366295   285.4364699628   340.4364699628   292.2698032961   364.2698032961   571.4364699628   687.9364699628   623.7698032961   553.7698032961   557.7698032961   609.7698032961   803.6031366295   957.9364699628  1119.9364699628  1210.4364699628  1125.1031366295  1107.1031366295  1154.9364699628  1096.4364699628  1092.1031366295  1037.4364699628   912.7698032961   768.2698032961   796.2698032961   884.4364699628   922.7698032961   921.4364699628   817.2698032961   672.9364699628   569.2698032961   548.9364699628   610.9364699628   664.6031366295   682.1031366295   750.1031366295   807.9364699628   835.6031366295   856.9364699628   853.2698032961   829.7698032961   809.7698032961   789.2698032961   749.4364699628   720.2698032961   700.9364699628   678.7698032961   643.7698032961   611.9364699628   585.7698032961   553.9364699628   518.4364699628   482.7698032961   451.7698032961   423.7698032961   410.4364699628   400.6031366295   376.2698032961   344.1031366295   316.4364699628   297.6031366295   281.9364699628   256.4364699628   235.7698032961   214.6031366295   200.7698032961   194.4364699628   179.2698032961   160.2698032961   139.2698032961   121.1031366295   103.9364699628    85.9364699628    66.7698032961    49.2698032961    34.2698032961    22.2698032961     9.4364699628    -5.7301967039   -17.5635300372   -23.5635300372   -25.8968633705   -25.2301967039   -21.2301967039   -17.3968633705   -11.7301967039    -5.5635300372    -3.2301967039    -0.8968633705     4.7698032961    15.1031366295    28.6031366295    38.9364699628    45.2698032961    52.6031366295    59.1031366295    63.4364699628    64.7698032961    65.6031366295    68.7698032961    74.4364699628    79.4364699628    79.4364699628    80.4364699628    83.1031366295    87.6031366295    94.6031366295    98.7698032961    97.9364699628    99.4364699628   105.1031366295   113.7698032961   122.4364699628   130.4364699628   136.2698032961   144.9364699628   154.9364699628   163.7698032961   170.6031366295   176.6031366295   183.1031366295   190.9364699628   195.4364699628   196.2698032961   199.4364699628   203.7698032961   207.9364699628   208.6031366295   199.6031366295   191.4364699628   189.9364699628   189.4364699628   185.1031366295   178.4364699628   174.9364699628   173.9364699628   173.1031366295   168.9364699628   162.1031366295   158.4364699628   156.1031366295   156.1031366295   152.7698032961   148.6031366295   151.9364699628   156.9364699628   156.7698032961   150.7698032961   142.1031366295   134.7698032961   129.7698032961   126.1031366295   121.1031366295   115.2698032961   110.6031366295   109.1031366295   107.2698032961   101.7698032961    95.7698032961    89.9364699628    87.7698032961    87.9364699628    88.1031366295    87.2698032961    87.6031366295    91.2698032961    94.2698032961    92.1031366295    87.7698032961    82.7698032961    81.9364699628    80.9364699628    77.6031366295    71.9364699628    67.6031366295    64.6031366295    59.4364699628    49.6031366295    38.6031366295    33.7698032961    34.4364699628    36.4364699628    33.7698032961    31.6031366295    28.7698032961    30.7698032961    31.4364699628    28.2698032961    24.1031366295    19.2698032961    15.6031366295    12.1031366295     6.9364699628     0.6031366295    -5.3968633705   -14.0635300372   -25.7301967039   -41.7301967039   -56.8968633705   -69.7301967039   -77.5635300372   -86.8968633705   -98.0635300372  -111.0635300372  -122.3968633705  -127.5635300372  -129.3968633705  -131.0635300372  -135.2301967039  -138.8968633705  -140.5635300372  -140.7301967039  -142.2301967039  -144.5635300372  -145.5635300372  -145.0635300372  -145.0635300372  -147.3968633705  -153.8968633705  -159.0635300372  -162.2301967039  -166.7301967039  -175.8968633705  -186.3968633705  -194.3968633705  -199.7301967039  -205.8968633705  -215.5635300372  -226.3968633705  -234.5635300372  -238.8968633705  -245.0635300372  -253.3968633705  -260.3968633705  -264.7301967039  -264.7301967039  -262.8968633705  -264.7301967039  -267.2301967039  -269.7301967039  -269.2301967039  -268.0635300372  -266.7301967039  -264.8968633705  -264.0635300372  -263.5635300372  -263.2301967039  -262.7301967039  -264.5635300372  -264.8968633705  -259.5635300372  -256.0635300372  -257.3968633705  -260.3968633705  -262.7301967039  -263.3968633705  -263.2301967039  -265.5635300372  -270.7301967039  -273.5635300372  -270.8968633705  -266.0635300372  -264.3968633705  -262.5635300372  -256.3968633705  -250.3968633705  -247.0635300372  -245.7301967039  -244.7301967039  -239.8968633705  -235.0635300372  -231.2301967039  -235.0635300372  -239.7301967039  -239.2301967039  -236.3968633705  -234.5635300372  -235.0635300372  -237.5635300372  -240.7301967039  -244.3968633705  -248.5635300372  -255.2301967039  -261.7301967039  -264.2301967039  -266.2301967039  -267.5635300372  -271.7301967039  -252.3616427432  -230.8264221159  -211.4578681552  -195.2559808612  -180.5540935672  -166.5188729399  -150.4836523126  -133.9484316853 
   12.4869018979    12.6150761828    16.0765838011    22.3714247527    26.4995990377    28.4611066560    29.5892809409    32.5507885592    37.0507885592    38.2174552259    38.7174552259    41.0507885592    44.5507885592    47.3841218925    47.5507885592    45.7174552259    45.0507885592    47.2174552259    48.2174552259    44.7174552259    41.0507885592    38.2174552259    38.5507885592    39.0507885592    34.2174552259    28.7174552259    24.0507885592    24.0507885592    24.8841218925    22.8841218925    21.7174552259    22.2174552259    25.0507885592    26.5507885592    23.7174552259    19.7174552259    17.8841218925    19.5507885592    21.3841218925    19.0507885592    15.7174552259    14.5507885592    14.7174552259    12.8841218925    11.8841218925     8.5507885592     5.3841218925     4.0507885592     2.2174552259    -1.1158781075    -5.6158781075    -9.6158781075   -11.1158781075   -12.7825447741   -17.6158781075   -21.1158781075   -20.6158781075   -19.9492114408   -18.2825447741   -19.7825447741   -24.4492114408   -26.2825447741   -26.1158781075   -26.4492114408   -30.2825447741   -35.1158781075   -36.1158781075   -32.7825447741   -30.7825447741   -30.4492114408   -33.2825447741   -34.6158781075   -33.7825447741   -31.1158781075   -30.9492114408   -29.2825447741   -25.7825447741   -20.2825447741   -15.9492114408   -12.9492114408   -11.2825447741    -9.7825447741    -7.2825447741    -4.9492114408    -4.4492114408    -6.1158781075    -4.4492114408    -1.7825447741    -1.1158781075    -3.4492114408    -9.1158781075   -14.9492114408   -17.6158781075   -19.6158781075   -22.9492114408   -26.9492114408   -26.1158781075   -21.4492114408   -18.1158781075   -16.1158781075   -14.1158781075   -10.7825447741    -5.2825447741     0.8841218925     4.8841218925     5.5507885592     9.5507885592    15.7174552259    19.3841218925    21.3841218925    22.3841218925    25.5507885592    29.3841218925    31.8841218925    33.3841218925    29.5507885592    24.0507885592    20.3841218925    17.2174552259    13.0507885592     9.3841218925     7.7174552259     8.5507885592     9.2174552259     8.8841218925     1.7174552259    -1.9492114408    -2.4492114408    -1.6158781075    -0.6158781075    -1.4492114408     1.7174552259    11.8841218925    22.7174552259    25.5507885592    24.7174552259    25.2174552259    28.3841218925    33.8841218925    40.8841218925    47.2174552259    59.0507885592    68.3841218925    70.7174552259    63.8841218925    55.8841218925    50.5507885592    44.7174552259    39.5507885592    37.3841218925    34.2174552259    33.0507885592    34.8841218925    38.8841218925    31.2174552259    16.2174552259    -8.4492114408   -43.9492114408   -86.1158781075  -138.6158781075  -232.7825447741  -348.4492114408  -443.6158781075  -526.4492114408  -583.9492114408  -676.7825447741  -824.9492114408  -946.4492114408 -1029.4492114408 -1063.9492114408 -1029.2825447741  -988.7825447741  -976.9492114408  -985.7825447741  -937.1158781075  -831.2825447741  -669.9492114408  -519.7825447741  -398.1158781075  -283.4492114408  -251.4492114408  -127.9492114408   107.5507885592   263.7174552259   318.2174552259   263.8841218925   110.8841218925    -8.6158781075  -171.4492114408  -297.1158781075  -304.9492114408  -286.4492114408  -291.1158781075  -178.6158781075   -39.6158781075    34.7174552259   163.8841218925   226.2174552259   210.0507885592   306.8841218925   409.0507885592   555.3841218925   776.7174552259   937.2174552259  1140.8841218925  1313.8841218925  1339.7174552259  1283.7174552259  1204.7174552259  1001.2174552259   811.0507885592   719.3841218925   667.5507885592   598.7174552259   552.5507885592   462.0507885592   427.3841218925   406.5507885592   365.2174552259   348.2174552259   362.5507885592   399.3841218925   407.0507885592   427.0507885592   475.2174552259   557.7174552259   602.2174552259   597.8841218925   552.5507885592   525.5507885592   498.7174552259   454.2174552259   404.2174552259   361.3841218925   314.3841218925   268.8841218925   235.5507885592   203.8841218925   177.2174552259   143.2174552259   113.0507885592    87.8841218925    75.3841218925    74.3841218925    71.3841218925    68.5507885592    67.3841218925    69.2174552259    74.0507885592    68.2174552259    47.0507885592    18.8841218925   -12.7825447741   -39.6158781075   -63.4492114408   -82.2825447741   -99.4492114408  -113.7825447741  -128.4492114408  -143.1158781075  -160.6158781075  -174.2825447741  -182.9492114408  -194.6158781075  -208.9492114408  -224.9492114408  -239.2825447741  -239.4492114408  -229.2825447741  -217.7825447741  -205.6158781075  -189.7825447741  -166.2825447741  -142.7825447741  -127.7825447741  -117.2825447741  -105.4492114408   -91.4492114408   -77.6158781075   -62.4492114408   -47.1158781075   -27.6158781075    -3.9492114408    18.3841218925    28.8841218925    34.0507885592    38.0507885592    42.7174552259    48.0507885592    49.2174552259    48.3841218925    50.8841218925    57.7174552259    66.0507885592    72.8841218925    78.5507885592    85.5507885592    95.5507885592   104.7174552259   108.5507885592   112.3841218925   116.8841218925   124.0507885592   132.7174552259   135.7174552259   136.7174552259   140.0507885592   147.8841218925   154.5507885592   157.5507885592   156.7174552259   158.8841218925   166.8841218925   176.3841218925   183.0507885592   185.3841218925   188.5507885592   194.8841218925   199.8841218925   200.5507885592   200.8841218925   205.0507885592   214.7174552259   220.3841218925   227.3841218925   235.3841218925   243.8841218925   250.7174552259   253.7174552259   250.2174552259   244.0507885592   243.0507885592   246.3841218925   249.7174552259   252.8841218925   254.8841218925   258.2174552259   262.7174552259   266.5507885592   269.5507885592   266.5507885592   261.0507885592   261.3841218925   263.2174552259   264.8841218925   266.8841218925   274.0507885592   280.7174552259   285.7174552259   287.2174552259   285.2174552259   284.5507885592   286.5507885592   291.3841218925   292.3841218925   291.5507885592   293.7174552259   301.5507885592   310.8841218925   319.2174552259   324.2174552259   329.0507885592   336.0507885592   343.5507885592   346.7174552259   348.3841218925   351.0507885592   354.3841218925   358.5507885592   357.0507885592   355.3841218925   355.0507885592   358.2174552259   357.8841218925   351.5507885592   343.7174552259   341.2174552259   342.3841218925   340.0507885592   334.5507885592   328.8841218925   324.3841218925   324.7174552259   324.8841218925   319.5507885592   313.2174552259   306.2174552259   303.8841218925   303.2174552259   300.0507885592   296.5507885592   292.3841218925   289.0507885592   287.0507885592   285.7174552259   282.8841218925   282.2174552259   285.0507885592   287.0507885592   285.5507885592   283.0507885592   283.7174552259   289.0507885592   292.8841218925   291.8841218925   291.8841218925   292.5507885592   296.8841218925   301.5507885592   304.5507885592   301.0507885592   302.8841218925   307.0507885592   309.5507885592   308.5507885592   307.0507885592   309.0507885592   313.3841218925   316.3841218925   315.8841218925   311.7174552259   308.2174552259   306.2174552259   307.7174552259   305.3841218925   300.2174552259   297.8841218925   294.7174552259   291.5507885592   287.5507885592   282.8841218925   280.7174552259   282.0507885592   282.5507885592   280.8841218925   277.7174552259   275.7174552259   275.8841218925   278.7174552259   274.7174552259   268.3841218925   264.3841218925   264.2174552259   262.5507885592   257.0507885592   248.7174552259   241.3841218925   236.7174552259   230.3841218925   220.8841218925   211.3841218925   202.2174552259   197.3841218925   192.8841218925   185.3841218925   176.5507885592   168.7174552259   161.5507885592   154.2174552259   147.3841218925   138.0507885592   131.2174552259   126.3841218925   119.0507885592   109.5507885592   100.8841218925    91.0507885592    84.8841218925    78.0507885592    67.3841218925    55.7174552259    47.2174552259    44.0507885592    37.9226142742    29.9611066560    21.6662657043    17.5380914194    14.2432504678    10.6150761828     7.4869018979     4.6920609463 
    9.6798561151     7.9776179057     6.4420463629     6.4064748201     6.7042366107     6.8353317346     4.9664268585     3.4308553157     4.4308553157     5.4308553157     3.4308553157     1.4308553157     1.7641886491     6.2641886491     8.7641886491     8.7641886491     7.7641886491     9.5975219824    13.0975219824    17.2641886491    18.2641886491    14.7641886491    13.7641886491    16.2641886491    18.9308553157    17.0975219824    14.7641886491    15.5975219824    17.9308553157    17.4308553157    12.9308553157     5.7641886491     1.4308553157     2.2641886491     2.9308553157     0.7641886491     0.2641886491     3.2641886491     8.7641886491    11.2641886491     8.7641886491     6.9308553157     8.0975219824    11.7641886491    14.4308553157    12.5975219824    11.2641886491    12.7641886491    15.0975219824    14.9308553157    14.0975219824    13.2641886491    14.0975219824    19.0975219824    22.9308553157    23.7641886491    24.5975219824    27.4308553157    32.5975219824    33.0975219824    30.0975219824    27.7641886491    27.2641886491    31.2641886491    36.5975219824    38.2641886491    37.5975219824    37.0975219824    40.2641886491    41.0975219824    37.0975219824    31.5975219824    28.9308553157    28.9308553157    28.4308553157    28.2641886491    27.7641886491    31.2641886491    36.0975219824    38.0975219824    35.0975219824    30.4308553157    28.4308553157    28.2641886491    24.9308553157    20.9308553157    19.0975219824    19.9308553157    22.0975219824    22.2641886491    19.2641886491    14.2641886491    12.9308553157    10.9308553157     7.2641886491     1.5975219824    -3.7358113509    -3.7358113509    -2.4024780176    -1.2358113509    -2.5691446843    -6.0691446843    -6.4024780176    -4.7358113509    -4.0691446843    -4.9024780176    -6.4024780176    -6.7358113509    -5.0691446843    -0.2358113509     1.9308553157     3.7641886491     6.4308553157    10.9308553157    13.7641886491    15.0975219824    16.2641886491    16.7641886491    17.9308553157    17.4308553157    13.4308553157     9.4308553157     7.4308553157     9.0975219824     9.4308553157     5.4308553157     2.2641886491     0.7641886491     2.0975219824     2.4308553157     0.2641886491    -2.2358113509    -2.7358113509     1.5975219824     3.0975219824     5.2641886491     6.9308553157     8.5975219824    13.0975219824    16.0975219824    16.2641886491    10.4308553157     9.2641886491    11.5975219824    15.4308553157    15.7641886491    18.4308553157    23.5975219824    28.9308553157    31.2641886491    26.2641886491    16.9308553157     7.4308553157     4.0975219824    -0.2358113509    -8.4024780176   -17.5691446843   -31.4024780176   -77.0691446843  -163.5691446843  -266.5691446843  -354.9024780176  -436.0691446843  -549.7358113509  -720.7358113509  -890.4024780176 -1007.5691446843 -1062.0691446843 -1067.4024780176 -1139.9024780176 -1239.0691446843 -1181.4024780176 -1073.7358113509  -970.0691446843  -872.7358113509  -733.5691446843  -534.9024780176  -362.2358113509  -320.2358113509  -270.5691446843   -69.5691446843   217.9308553157   476.0975219824   583.0975219824   680.7641886491   830.0975219824   838.2641886491   663.0975219824   480.7641886491   373.4308553157   273.5975219824   233.4308553157   211.9308553157   165.2641886491   289.7641886491   552.9308553157   706.2641886491   734.9308553157   728.0975219824   805.5975219824   815.5975219824   805.0975219824   973.9308553157  1137.9308553157  1273.0975219824  1360.5975219824  1413.2641886491  1436.2641886491  1389.9308553157  1408.0975219824  1345.2641886491  1165.7641886491  1007.2641886491   894.7641886491   823.0975219824   735.4308553157   665.2641886491   641.9308553157   622.5975219824   648.0975219824   655.5975219824   643.2641886491   700.0975219824   725.5975219824   752.2641886491   742.4308553157   754.2641886491   759.0975219824   752.2641886491   730.0975219824   698.7641886491   704.7641886491   732.2641886491   752.7641886491   759.9308553157   749.4308553157   736.9308553157   721.5975219824   701.2641886491   682.9308553157   667.7641886491   657.7641886491   657.9308553157   664.9308553157   677.7641886491   694.9308553157   698.5975219824   690.2641886491   674.2641886491   649.7641886491   614.4308553157   581.0975219824   555.4308553157   539.9308553157   520.5975219824   491.4308553157   463.2641886491   437.9308553157   416.2641886491   395.7641886491   371.7641886491   347.0975219824   328.0975219824   310.4308553157   296.4308553157   281.4308553157   271.4308553157   265.5975219824   261.4308553157   257.2641886491   253.5975219824   257.5975219824   262.7641886491   271.7641886491   278.9308553157   285.4308553157   295.0975219824   308.7641886491   323.2641886491   335.7641886491   345.5975219824   353.5975219824   364.9308553157   375.2641886491   387.4308553157   401.4308553157   418.4308553157   433.9308553157   452.5975219824   472.0975219824   488.7641886491   503.9308553157   518.0975219824   533.4308553157   544.5975219824   552.7641886491   558.9308553157   568.7641886491   577.2641886491   589.2641886491   598.2641886491   603.0975219824   607.9308553157   613.5975219824   615.9308553157   611.4308553157   605.9308553157   599.2641886491   593.5975219824   590.4308553157   588.0975219824   588.5975219824   590.5975219824   590.7641886491   591.2641886491   588.4308553157   582.9308553157   582.0975219824   582.0975219824   581.2641886491   577.7641886491   577.4308553157   580.2641886491   588.5975219824   599.9308553157   607.0975219824   610.9308553157   614.5975219824   619.9308553157   626.4308553157   629.9308553157   632.2641886491   635.9308553157   642.7641886491   650.5975219824   656.0975219824   660.7641886491   668.4308553157   678.2641886491   687.5975219824   694.9308553157   700.4308553157   705.9308553157   713.2641886491   718.4308553157   724.2641886491   728.5975219824   734.5975219824   743.2641886491   745.2641886491   741.0975219824   736.0975219824   732.4308553157   731.0975219824   727.2641886491   718.7641886491   706.9308553157   695.7641886491   690.9308553157   682.2641886491   669.5975219824   652.0975219824   640.5975219824   632.4308553157   623.0975219824   614.2641886491   605.2641886491   595.2641886491   588.9308553157   580.5975219824   570.2641886491   562.4308553157   555.2641886491   551.9308553157   543.9308553157   536.5975219824   531.2641886491   527.2641886491   522.2641886491   514.9308553157   504.7641886491   493.7641886491   484.0975219824   479.5975219824   469.7641886491   454.7641886491   438.2641886491   423.0975219824   412.7641886491   397.9308553157   382.7641886491   368.4308553157   352.5975219824   340.7641886491   326.9308553157   309.7641886491   292.0975219824   274.4308553157   257.5975219824   239.9308553157   222.0975219824   203.7641886491   189.7641886491   173.2641886491   155.2641886491   135.7641886491   113.0975219824    88.4308553157    67.9308553157    44.4308553157    19.4308553157    -8.2358113509   -36.7358113509   -62.2358113509   -86.0691446843  -113.5691446843  -140.5691446843  -165.0691446843  -191.0691446843  -214.2358113509  -240.2358113509  -267.9024780176  -294.5691446843  -317.4024780176  -341.0691446843  -366.5691446843  -394.5691446843  -415.7358113509  -434.2358113509  -455.4024780176  -480.9024780176  -508.2358113509  -536.7358113509  -562.5691446843  -588.7358113509  -617.7358113509  -646.4024780176  -673.0691446843  -697.4024780176  -724.5691446843  -753.4024780176  -779.4024780176  -800.4024780176  -819.9024780176  -836.4024780176  -851.9024780176  -868.4024780176  -882.5691446843  -892.2358113509  -903.4024780176  -914.9024780176  -925.7358113509  -937.5691446843  -948.4024780176  -959.4024780176  -970.0691446843  -983.2358113509  -996.0691446843 -1005.5691446843 -1018.9024780176 -1037.5691446843 -1058.7358113509 -1076.2358113509 -1091.5691446843 -1107.9024780176 -1125.9024780176 -1144.9024780176 -1163.2358113509 -1178.4024780176 -1190.4024780176 -1203.7358113509 -1220.9024780176 -1234.9024780176 -1163.7002398082 -1095.4980015987 -1025.6290967226  -951.7601918465  -874.5579536371  -796.8557154277  -720.3201438849  -644.4512390088 
    8.2975713904     6.8121163598     5.9933279957     6.1745396317     6.1890846010     5.8702962370     5.0515078730     5.2327195089     7.5660528423     2.8993861756    -0.1006138244    -1.4339471577    -0.2672804911     1.3993861756    -1.9339471577    -5.9339471577    -6.6006138244    -4.1006138244    -1.2672804911    -0.4339471577    -1.6006138244    -4.1006138244    -2.2672804911     0.7327195089     2.2327195089     4.3993861756     6.2327195089    11.5660528423    16.5660528423    17.7327195089    13.8993861756    10.8993861756     9.8993861756     7.7327195089     3.7327195089     0.7327195089    -0.7672804911     3.7327195089     6.7327195089     6.0660528423     3.2327195089     2.5660528423     3.7327195089     3.8993861756     1.0660528423    -0.7672804911     5.5660528423    13.0660528423    16.7327195089    17.5660528423    17.2327195089    17.5660528423    22.0660528423    24.5660528423    22.5660528423    18.3993861756    16.0660528423    17.2327195089    18.8993861756    18.8993861756    17.7327195089    15.5660528423    10.7327195089     7.5660528423     5.0660528423     0.3993861756    -1.7672804911    -2.2672804911    -4.2672804911    -9.2672804911   -13.1006138244   -12.9339471577   -10.4339471577    -9.6006138244   -12.9339471577   -16.4339471577   -19.6006138244   -21.4339471577   -21.9339471577   -24.1006138244   -27.1006138244   -26.9339471577   -25.1006138244   -21.6006138244   -20.2672804911   -20.6006138244   -20.6006138244   -16.1006138244   -10.4339471577    -8.2672804911    -6.1006138244    -5.4339471577    -2.6006138244     1.3993861756     6.0660528423     7.8993861756     9.2327195089    15.2327195089    20.8993861756    23.8993861756    22.0660528423    19.5660528423    17.8993861756    13.0660528423     4.7327195089    -1.2672804911    -7.7672804911    -9.9339471577    -9.7672804911   -11.2672804911   -13.6006138244   -14.9339471577   -11.7672804911    -7.2672804911    -5.2672804911   -10.2672804911   -10.2672804911    -6.7672804911    -2.7672804911    -1.7672804911    -1.7672804911    -1.1006138244     2.8993861756     5.8993861756     4.0660528423     1.3993861756    -3.2672804911    -1.9339471577    -0.2672804911    -1.4339471577    -4.4339471577    -5.1006138244    -4.1006138244    -2.1006138244    -3.7672804911    -6.4339471577    -7.2672804911    -6.1006138244    -4.7672804911    -5.7672804911    -6.2672804911    -8.2672804911    -7.2672804911    -8.1006138244   -12.2672804911   -20.1006138244   -25.2672804911   -24.1006138244   -23.7672804911   -27.9339471577   -31.2672804911   -31.4339471577   -33.1006138244   -41.7672804911   -51.7672804911   -63.6006138244   -85.9339471577  -104.6006138244  -112.2672804911  -118.1006138244  -129.6006138244  -165.6006138244  -244.4339471577  -317.9339471577  -403.2672804911  -487.4339471577  -588.2672804911  -728.2672804911  -896.6006138244 -1049.2672804911 -1163.9339471577 -1224.6006138244 -1203.9339471577 -1232.2672804911 -1360.1006138244 -1309.4339471577 -1193.9339471577 -1199.9339471577 -1134.4339471577  -970.4339471577  -822.7672804911  -680.6006138244  -463.4339471577  -305.4339471577  -111.7672804911   154.3993861756   376.7327195089   492.3993861756   464.7327195089   503.8993861756   533.7327195089   273.2327195089    52.0660528423    52.3993861756    98.8993861756   121.2327195089   185.7327195089   252.0660528423   274.2327195089   420.3993861756   442.2327195089   331.7327195089   297.7327195089   352.8993861756   425.3993861756   508.0660528423   728.3993861756  1049.5660528423  1211.3993861756  1248.2327195089  1180.7327195089  1076.3993861756   959.8993861756   821.5660528423   682.5660528423   487.3993861756   451.0660528423   511.5660528423   468.2327195089   352.0660528423   285.8993861756   225.5660528423   136.3993861756    85.8993861756    78.2327195089    90.8993861756   127.8993861756   129.2327195089   152.3993861756   214.8993861756   256.5660528423   325.3993861756   343.5660528423   326.8993861756   343.5660528423   387.3993861756   432.7327195089   436.7327195089   427.8993861756   389.8993861756   357.0660528423   358.7327195089   373.0660528423   385.5660528423   374.2327195089   352.8993861756   333.3993861756   310.8993861756   301.5660528423   280.0660528423   251.7327195089   227.0660528423   206.3993861756   197.8993861756   192.0660528423   179.5660528423   175.5660528423   168.8993861756   158.3993861756   138.2327195089   113.8993861756    87.2327195089    69.7327195089    56.2327195089    36.5660528423     8.7327195089   -14.2672804911   -30.4339471577   -40.9339471577   -56.4339471577   -80.2672804911  -103.6006138244  -122.1006138244  -136.9339471577  -158.9339471577  -178.7672804911  -191.7672804911  -204.7672804911  -219.4339471577  -232.1006138244  -235.9339471577  -232.6006138244  -226.2672804911  -216.7672804911  -213.9339471577  -215.6006138244  -211.7672804911  -203.9339471577  -197.1006138244  -194.2672804911  -186.7672804911  -177.9339471577  -170.4339471577  -160.7672804911  -150.2672804911  -143.1006138244  -139.7672804911  -134.7672804911  -133.7672804911  -134.2672804911  -133.2672804911  -129.9339471577  -124.1006138244  -118.9339471577  -113.7672804911  -104.6006138244   -96.7672804911   -90.2672804911   -84.4339471577   -81.7672804911   -81.2672804911   -77.7672804911   -77.9339471577   -76.6006138244   -73.7672804911   -74.4339471577   -74.2672804911   -70.1006138244   -64.7672804911   -59.9339471577   -57.6006138244   -61.2672804911   -64.1006138244   -62.7672804911   -61.7672804911   -62.1006138244   -62.9339471577   -62.4339471577   -58.4339471577   -57.7672804911   -56.2672804911   -54.7672804911   -51.7672804911   -48.1006138244   -47.4339471577   -47.9339471577   -44.6006138244   -38.1006138244   -31.7672804911   -32.9339471577   -39.2672804911   -42.9339471577   -44.9339471577   -43.7672804911   -44.9339471577   -48.7672804911   -53.4339471577   -51.6006138244   -48.2672804911   -49.1006138244   -53.4339471577   -57.4339471577   -60.4339471577   -62.1006138244   -64.1006138244   -66.2672804911   -63.9339471577   -61.2672804911   -55.6006138244   -55.9339471577   -58.2672804911   -58.2672804911   -56.1006138244   -53.7672804911   -52.4339471577   -52.2672804911   -50.2672804911   -45.9339471577   -41.9339471577   -42.1006138244   -43.7672804911   -43.9339471577   -40.2672804911   -36.7672804911   -35.9339471577   -37.9339471577   -37.9339471577   -35.1006138244   -30.1006138244   -29.4339471577   -34.7672804911   -39.2672804911   -39.9339471577   -38.4339471577   -37.7672804911   -38.1006138244   -40.1006138244   -39.1006138244   -38.2672804911   -36.7672804911   -37.2672804911   -35.6006138244   -31.9339471577   -28.2672804911   -30.7672804911   -33.9339471577   -34.6006138244   -33.2672804911   -30.7672804911   -28.7672804911   -30.4339471577   -28.9339471577   -22.7672804911   -16.1006138244   -15.2672804911   -17.4339471577   -17.4339471577   -13.6006138244    -7.9339471577    -5.2672804911    -1.7672804911     0.7327195089     4.3993861756     7.7327195089     7.8993861756     6.0660528423     6.8993861756     8.2327195089     6.7327195089     3.0660528423    -2.6006138244    -4.9339471577    -5.6006138244    -6.7672804911    -7.1006138244    -9.6006138244   -11.9339471577    -9.1006138244    -3.9339471577    -1.2672804911    -1.7672804911    -2.9339471577    -2.1006138244    -2.1006138244    -2.1006138244    -3.1006138244    -1.7672804911     1.3993861756     5.5660528423     9.3993861756     8.2327195089     7.0660528423     7.5660528423     7.3993861756     3.8993861756    -0.6006138244    -3.4339471577    -5.6006138244    -5.9339471577    -4.4339471577    -3.6006138244    -2.2672804911     4.5660528423     9.2327195089    10.0660528423     8.0660528423     5.7327195089     6.7327195089    10.5660528423    11.2327195089     9.8993861756    12.8993861756    18.7327195089    25.5660528423    28.3993861756    25.8993861756    21.2327195089    20.3993861756    20.8993861756    20.3993861756    17.0660528423    14.3993861756    14.0660528423    13.2181745396    10.0369629037     7.5224179344     8.1745396317     7.6599946624     5.6454496931     2.4642380571     0.4496930878 
    4.1619962637     7.5874032559    11.6794769149    12.2715505738    11.3636242327    10.2890312250    10.2144382172     9.3065118762     7.4731785428     4.3065118762     3.6398452095     3.6398452095     1.1398452095     0.3065118762     0.8065118762     2.3065118762    -0.6934881238    -4.6934881238   -13.0268214572   -17.0268214572   -17.3601547905   -15.5268214572   -15.6934881238   -16.0268214572   -15.3601547905   -10.5268214572    -6.0268214572    -4.6934881238    -4.6934881238    -3.6934881238    -3.5268214572    -4.1934881238    -3.6934881238    -6.3601547905    -4.0268214572     1.8065118762     5.4731785428     5.4731785428     2.8065118762     0.8065118762     0.3065118762    -3.0268214572    -8.3601547905   -12.0268214572   -11.5268214572    -9.5268214572    -6.1934881238    -6.5268214572    -5.6934881238    -3.5268214572     0.6398452095     3.3065118762     5.1398452095     4.6398452095     9.4731785428    16.9731785428    22.8065118762    25.6398452095    26.3065118762    26.6398452095    29.8065118762    33.3065118762    33.9731785428    34.8065118762    34.6398452095    36.8065118762    38.3065118762    34.9731785428    32.4731785428    31.3065118762    28.9731785428    25.9731785428    19.9731785428    14.9731785428    11.1398452095     8.3065118762     4.8065118762     2.4731785428     0.1398452095    -0.3601547905     2.3065118762     2.3065118762    -2.5268214572    -7.6934881238   -13.5268214572   -12.6934881238    -7.5268214572    -8.6934881238    -7.6934881238    -3.8601547905     3.1398452095     9.8065118762    11.1398452095     9.6398452095    10.6398452095    13.9731785428    14.1398452095    12.1398452095    11.3065118762    13.4731785428    17.1398452095    20.6398452095    19.3065118762    18.6398452095    15.9731785428    18.9731785428    22.3065118762    24.6398452095    25.1398452095    26.1398452095    28.1398452095    28.8065118762    27.1398452095    25.6398452095    27.3065118762    32.3065118762    36.9731785428    36.3065118762    30.8065118762    28.3065118762    31.8065118762    30.8065118762    27.4731785428    22.8065118762    19.8065118762    17.6398452095    16.4731785428    13.4731785428    10.1398452095    10.9731785428    11.6398452095    10.1398452095     5.6398452095     2.9731785428     6.3065118762    11.4731785428    12.4731785428    10.9731785428     8.3065118762     3.1398452095     0.3065118762    -1.0268214572    -4.6934881238    -8.1934881238    -7.5268214572    -5.5268214572    -4.5268214572    -8.6934881238   -21.8601547905   -41.0268214572   -56.6934881238   -65.6934881238   -79.0268214572  -120.0268214572  -182.0268214572  -230.8601547905  -265.8601547905  -302.1934881238  -355.5268214572  -480.1934881238  -632.6934881238  -780.1934881238  -874.8601547905  -905.0268214572  -910.8601547905  -940.1934881238  -890.6934881238  -826.8601547905  -814.0268214572  -812.0268214572  -743.1934881238  -643.6934881238  -536.6934881238  -484.1934881238  -417.3601547905  -243.8601547905  -169.0268214572  -142.5268214572  -109.3601547905  -100.1934881238   -77.1934881238   -66.6934881238   -77.0268214572   -92.8601547905   -40.3601547905   -24.0268214572  -199.6934881238  -469.6934881238  -620.5268214572  -575.8601547905  -517.3601547905  -451.5268214572  -180.5268214572    69.8065118762   251.9731785428   396.8065118762   428.8065118762   504.3065118762   591.1398452095   684.8065118762   744.8065118762   779.9731785428   962.3065118762  1239.4731785428  1360.6398452095  1341.1398452095  1354.1398452095  1334.1398452095  1207.9731785428  1111.9731785428  1001.4731785428   858.6398452095   785.6398452095   720.9731785428   593.6398452095   443.3065118762   356.8065118762   395.8065118762   423.3065118762   404.6398452095   399.3065118762   401.9731785428   358.6398452095   306.4731785428   277.4731785428   275.4731785428   291.1398452095   336.8065118762   396.1398452095   443.6398452095   484.4731785428   524.4731785428   510.4731785428   467.6398452095   433.9731785428   406.1398452095   374.4731785428   335.6398452095   304.8065118762   275.6398452095   248.1398452095   225.8065118762   203.6398452095   184.3065118762   164.3065118762   150.4731785428   131.1398452095   107.9731785428    91.9731785428    77.4731785428    64.8065118762    53.8065118762    44.8065118762    27.4731785428     4.3065118762   -17.8601547905   -41.1934881238   -60.5268214572   -76.1934881238   -94.3601547905  -109.5268214572  -128.1934881238  -148.5268214572  -170.3601547905  -190.5268214572  -201.6934881238  -207.6934881238  -217.5268214572  -225.3601547905  -225.8601547905  -223.5268214572  -222.1934881238  -218.5268214572  -222.5268214572  -228.8601547905  -228.1934881238  -224.0268214572  -220.5268214572  -216.5268214572  -209.1934881238  -197.5268214572  -187.1934881238  -182.1934881238  -175.1934881238  -165.1934881238  -155.5268214572  -145.1934881238  -137.3601547905  -132.0268214572  -127.0268214572  -116.0268214572  -107.1934881238  -100.8601547905   -98.3601547905   -94.0268214572   -83.1934881238   -72.3601547905   -69.3601547905   -67.1934881238   -63.0268214572   -59.0268214572   -55.3601547905   -55.5268214572   -56.0268214572   -56.0268214572   -51.3601547905   -46.6934881238   -43.5268214572   -40.8601547905   -35.3601547905   -28.3601547905   -27.5268214572   -30.8601547905   -32.8601547905   -31.1934881238   -27.3601547905   -23.3601547905   -21.6934881238   -21.1934881238   -18.1934881238   -12.0268214572    -5.6934881238    -3.8601547905    -1.8601547905     0.8065118762     4.9731785428     8.9731785428    13.8065118762    16.8065118762    19.9731785428    22.6398452095    23.4731785428    21.1398452095    17.3065118762    14.3065118762    13.4731785428    11.1398452095     5.8065118762     1.1398452095    -3.3601547905    -6.8601547905    -7.6934881238   -12.8601547905   -18.1934881238   -19.6934881238   -19.8601547905   -18.1934881238   -17.6934881238   -19.3601547905   -18.8601547905   -13.6934881238   -12.1934881238   -11.5268214572   -11.1934881238   -11.3601547905    -8.1934881238    -5.0268214572    -7.3601547905    -8.0268214572    -9.0268214572   -10.3601547905    -8.6934881238   -10.1934881238   -13.3601547905   -14.0268214572   -10.6934881238    -9.1934881238    -8.1934881238    -8.3601547905    -7.0268214572    -0.8601547905     3.1398452095     4.9731785428     3.1398452095     4.4731785428    12.1398452095    21.1398452095    24.9731785428    25.6398452095    26.3065118762    26.8065118762    26.6398452095    22.6398452095    17.4731785428    14.8065118762    12.9731785428    10.4731785428     6.6398452095     1.3065118762     1.1398452095     0.4731785428    -3.0268214572   -10.0268214572   -18.8601547905   -20.3601547905   -15.6934881238    -8.8601547905    -8.1934881238   -10.1934881238    -7.8601547905    -2.3601547905     3.6398452095     5.9731785428     6.1398452095     6.8065118762     9.6398452095    12.3065118762    12.1398452095    11.4731785428    13.1398452095    11.3065118762     7.8065118762     4.4731785428     3.1398452095     6.6398452095    10.1398452095    10.4731785428     9.1398452095     5.6398452095     2.6398452095     1.6398452095     0.8065118762     0.1398452095    -3.3601547905    -4.5268214572    -3.8601547905    -4.8601547905    -9.0268214572   -15.8601547905   -20.1934881238   -21.0268214572   -22.0268214572   -25.1934881238   -29.5268214572   -28.6934881238   -25.6934881238   -20.6934881238   -19.3601547905   -22.3601547905   -23.1934881238   -22.0268214572   -21.1934881238   -20.8601547905   -19.8601547905   -19.0268214572   -17.1934881238   -16.1934881238   -18.0268214572   -20.0268214572   -20.6934881238   -19.0268214572   -18.5268214572   -18.3601547905   -20.8601547905   -22.6934881238   -21.3601547905   -17.0268214572   -13.0268214572   -11.6934881238   -11.1934881238    -8.3601547905    -4.6934881238    -5.3601547905    -5.5268214572    -5.1934881238    -2.1934881238    -1.5268214572    -1.1934881238    -5.0268214572    -7.5268214572    -5.3601547905    -1.5268214572    -1.8601547905    -3.9522284494    -2.3776354417    -0.9697091006    -0.5617827595    -2.3205230851    -2.2459300774    -1.0046704030     1.7365892714 
 -158.2602245389  -176.6780272654  -196.9291633253  -219.8469660519  -244.7647687784  -266.8492381716  -287.6003742315  -308.0181769580  -317.1848436247  -326.5181769580  -329.8515102914  -331.0181769580  -334.3515102914  -340.1848436247  -345.8515102914  -349.3515102914  -353.8515102914  -361.8515102914  -368.6848436247  -375.5181769580  -381.0181769580  -386.8515102914  -393.0181769580  -400.8515102914  -410.3515102914  -415.0181769580  -420.1848436247  -427.1848436247  -434.0181769580  -440.8515102914  -445.8515102914  -448.5181769580  -449.8515102914  -451.5181769580  -453.3515102914  -453.3515102914  -451.3515102914  -449.6848436247  -450.1848436247  -450.1848436247  -444.6848436247  -437.0181769580  -432.1848436247  -430.1848436247  -433.6848436247  -434.3515102914  -434.8515102914  -434.6848436247  -434.5181769580  -437.0181769580  -439.0181769580  -438.1848436247  -439.6848436247  -445.0181769580  -450.8515102914  -454.8515102914  -459.6848436247  -467.6848436247  -474.0181769580  -481.6848436247  -484.5181769580  -485.8515102914  -487.5181769580  -490.5181769580  -493.8515102914  -490.6848436247  -488.3515102914  -487.5181769580  -489.0181769580  -490.5181769580  -488.5181769580  -487.3515102914  -486.0181769580  -485.1848436247  -491.5181769580  -495.6848436247  -497.0181769580  -497.1848436247  -499.1848436247  -503.3515102914  -507.8515102914  -511.8515102914  -512.8515102914  -515.3515102914  -517.8515102914  -517.6848436247  -516.8515102914  -515.8515102914  -518.8515102914  -523.3515102914  -522.0181769580  -518.8515102914  -516.6848436247  -519.1848436247  -521.6848436247  -520.8515102914  -517.5181769580  -514.3515102914  -515.0181769580  -515.6848436247  -514.0181769580  -508.1848436247  -504.8515102914  -501.5181769580  -496.0181769580  -489.1848436247  -481.3515102914  -475.3515102914  -472.8515102914  -468.5181769580  -460.5181769580  -453.1848436247  -446.3515102914  -444.3515102914  -442.1848436247  -438.8515102914  -429.8515102914  -424.8515102914  -422.6848436247  -421.5181769580  -420.5181769580  -416.3515102914  -414.0181769580  -411.8515102914  -408.5181769580  -403.8515102914  -398.6848436247  -392.1848436247  -389.0181769580  -385.6848436247  -377.8515102914  -368.5181769580  -363.6848436247  -361.8515102914  -356.6848436247  -352.8515102914  -345.8515102914  -338.1848436247  -332.8515102914  -327.3515102914  -320.0181769580  -311.8515102914  -306.0181769580  -306.6848436247  -308.5181769580  -307.6848436247  -306.5181769580  -303.1848436247  -299.0181769580  -298.5181769580  -298.0181769580  -293.3515102914  -290.0181769580  -290.0181769580  -286.0181769580  -281.3515102914  -276.5181769580  -275.0181769580  -274.5181769580  -272.5181769580  -269.6848436247  -265.3515102914  -265.1848436247  -270.3515102914  -277.1848436247  -274.6848436247  -269.0181769580  -266.1848436247  -266.5181769580  -269.5181769580  -273.3515102914  -276.1848436247  -279.6848436247  -283.8515102914  -291.0181769580  -295.5181769580  -296.1848436247  -301.8515102914  -312.1848436247  -324.0181769580  -333.6848436247  -354.5181769580  -375.3515102914  -408.5181769580  -464.6848436247  -514.3515102914  -594.1848436247  -723.0181769580  -839.3515102914  -927.8515102914  -991.5181769580 -1081.5181769580 -1162.3515102914 -1284.6848436247 -1365.3515102914 -1295.6848436247 -1157.8515102914 -1007.8515102914  -888.1848436247  -850.8515102914  -903.8515102914  -874.1848436247  -706.3515102914  -443.5181769580  -251.6848436247  -183.6848436247  -153.6848436247   -43.5181769580    37.9818230420   187.3151563753   329.3151563753   220.3151563753     3.3151563753  -106.3515102914  -229.5181769580  -394.8515102914  -408.0181769580  -525.1848436247  -682.8515102914  -738.5181769580  -692.5181769580  -544.8515102914  -412.8515102914  -335.0181769580  -217.3515102914  -138.3515102914  -180.3515102914   -30.0181769580   181.6484897086   293.1484897086   416.1484897086   640.6484897086   800.6484897086   967.6484897086  1024.8151563753   971.3151563753   915.1484897086   872.4818230420   848.9818230420   807.1484897086   730.9818230420   646.4818230420   641.8151563753   547.3151563753   442.3151563753   315.8151563753   204.9818230420   147.1484897086   127.3151563753   118.8151563753   142.4818230420   132.9818230420    94.9818230420    35.9818230420   -23.3515102914   -59.3515102914   -63.3515102914   -35.1848436247    -2.0181769580    19.8151563753    27.4818230420    50.9818230420   102.1484897086   142.8151563753   168.4818230420   182.8151563753   204.8151563753   213.9818230420   207.8151563753   201.1484897086   203.8151563753   210.8151563753   200.8151563753   176.4818230420   154.1484897086   148.4818230420   139.4818230420   119.9818230420    87.9818230420    47.9818230420    13.3151563753    -7.5181769580   -24.0181769580   -36.6848436247   -49.6848436247   -57.5181769580   -59.1848436247   -69.6848436247   -83.8515102914   -91.8515102914   -95.8515102914  -105.8515102914  -109.1848436247  -107.3515102914  -110.5181769580  -114.1848436247  -115.8515102914  -120.5181769580  -129.8515102914  -136.6848436247  -140.1848436247  -139.6848436247  -135.8515102914  -133.8515102914  -132.1848436247  -133.0181769580  -130.1848436247  -121.8515102914  -115.5181769580  -111.8515102914  -107.5181769580   -99.3515102914   -94.1848436247   -88.5181769580   -80.1848436247   -68.6848436247   -55.0181769580   -46.8515102914   -46.8515102914   -47.5181769580   -45.5181769580   -40.0181769580   -37.1848436247   -39.0181769580   -42.5181769580   -42.8515102914   -40.3515102914   -36.8515102914   -35.0181769580   -34.1848436247   -33.5181769580   -29.0181769580   -24.8515102914   -24.3515102914   -23.8515102914   -20.8515102914   -17.0181769580   -12.8515102914    -8.1848436247    -2.8515102914     3.9818230420    12.9818230420    20.8151563753    23.8151563753    27.4818230420    32.8151563753    40.6484897086    44.9818230420    44.1484897086    44.9818230420    49.9818230420    55.9818230420    61.8151563753    65.3151563753    66.3151563753    64.8151563753    65.3151563753    63.8151563753    58.3151563753    51.4818230420    45.3151563753    40.4818230420    33.3151563753    23.1484897086    13.9818230420     9.6484897086     6.6484897086     3.6484897086    -2.3515102914    -8.1848436247   -12.6848436247    -9.0181769580    -5.8515102914    -8.3515102914   -10.5181769580    -8.6848436247    -3.5181769580    -0.8515102914    -1.3515102914    -3.6848436247    -1.3515102914    -0.5181769580    -0.6848436247    -1.8515102914    -3.0181769580    -2.5181769580     3.1484897086     5.1484897086     1.8151563753     0.8151563753     5.9818230420    15.3151563753    22.3151563753    24.4818230420    26.8151563753    35.3151563753    40.1484897086    43.1484897086    45.4818230420    47.1484897086    50.3151563753    52.8151563753    48.6484897086    39.9818230420    37.6484897086    40.4818230420    45.1484897086    46.8151563753    45.6484897086    47.6484897086    50.8151563753    51.3151563753    52.9818230420    55.4818230420    52.9818230420    49.4818230420    46.6484897086    43.3151563753    41.3151563753    40.3151563753    37.6484897086    35.4818230420    30.4818230420    21.9818230420    14.1484897086     7.6484897086     5.3151563753     4.8151563753     2.4818230420    -1.6848436247     1.1484897086     8.6484897086    12.8151563753    11.9818230420     8.6484897086    10.8151563753    16.1484897086    18.1484897086    16.6484897086    14.8151563753    17.1484897086    22.3151563753    27.1484897086    27.1484897086    26.3151563753    28.4818230420    29.8151563753    27.1484897086    25.3151563753    28.3151563753    37.9818230420    45.4818230420    47.4818230420    46.1484897086    46.4818230420    50.3151563753    52.4818230420    53.1484897086    50.4818230420    50.1484897086    49.9818230420    53.4818230420    58.3151563753    61.6484897086    62.6484897086    63.9818230420    65.3151563753    67.3151563753    69.6484897086    74.6484897086    80.8151563753    87.6484897086    92.4818230420    88.3996257685    85.6507618284    82.2352312216    80.6530339481    74.5708366747    65.4886394012    58.9064421278    55.9909115210 
  325.4155306068   359.9802191927   392.3782411120   422.4429296979   452.5076182839   483.9056402032   518.3036621224   553.2016840417   551.2016840417   550.0350173750   548.8683507084   548.0350173750   545.8683507084   543.0350173750   542.8683507084   543.2016840417   546.5350173750   549.0350173750   554.7016840417   559.3683507084   565.2016840417   572.5350173750   574.7016840417   575.5350173750   577.2016840417   581.2016840417   584.7016840417   588.0350173750   588.2016840417   588.7016840417   590.0350173750   593.0350173750   592.3683507084   589.8683507084   587.3683507084   591.0350173750   595.3683507084   592.8683507084   590.3683507084   588.7016840417   588.8683507084   591.8683507084   592.0350173750   586.2016840417   580.2016840417   577.2016840417   579.0350173750   577.2016840417   572.2016840417   567.3683507084   563.7016840417   559.0350173750   553.5350173750   551.7016840417   548.2016840417   546.0350173750   544.7016840417   540.8683507084   538.8683507084   539.3683507084   542.8683507084   545.2016840417   542.2016840417   533.5350173750   528.2016840417   525.3683507084   524.0350173750   522.2016840417   517.2016840417   511.2016840417   511.0350173750   510.8683507084   507.2016840417   499.3683507084   488.2016840417   482.3683507084   480.5350173750   478.5350173750   474.0350173750   474.5350173750   474.5350173750   476.3683507084   474.0350173750   463.8683507084   454.7016840417   449.0350173750   447.0350173750   442.3683507084   434.0350173750   428.7016840417   429.3683507084   430.5350173750   425.7016840417   417.8683507084   411.2016840417   406.0350173750   405.2016840417   402.5350173750   397.8683507084   395.7016840417   394.3683507084   392.2016840417   383.5350173750   370.5350173750   360.5350173750   353.5350173750   345.5350173750   331.5350173750   316.5350173750   302.2016840417   291.3683507084   283.0350173750   272.2016840417   259.2016840417   244.7016840417   237.2016840417   230.8683507084   222.8683507084   209.2016840417   199.7016840417   192.2016840417   182.3683507084   170.2016840417   159.7016840417   152.0350173750   147.2016840417   138.5350173750   127.8683507084   114.2016840417    99.8683507084    91.3683507084    81.5350173750    67.5350173750    50.0350173750    36.5350173750    24.3683507084    11.7016840417    -6.1316492916   -28.1316492916   -51.6316492916   -71.7983159583   -91.9649826250  -112.1316492916  -137.6316492916  -161.4649826250  -182.2983159583  -204.7983159583  -230.6316492916  -256.6316492916  -279.7983159583  -297.6316492916  -315.2983159583  -332.4649826250  -349.4649826250  -363.4649826250  -374.2983159583  -387.9649826250  -402.9649826250  -416.4649826250  -427.6316492916  -435.9649826250  -443.6316492916  -451.9649826250  -462.1316492916  -469.4649826250  -474.1316492916  -480.6316492916  -491.6316492916  -508.7983159583  -520.7983159583  -530.7983159583  -539.4649826250  -548.4649826250  -561.1316492916  -578.1316492916  -595.7983159583  -620.7983159583  -654.6316492916  -682.7983159583  -706.6316492916  -732.7983159583  -752.1316492916  -782.7983159583  -836.6316492916  -934.6316492916 -1106.6316492916 -1285.4649826250 -1424.4649826250 -1582.6316492916 -1735.1316492916 -1832.9649826250 -1875.4649826250 -1935.9649826250 -2035.1316492916 -2090.6316492916 -2106.7983159583 -2230.4649826250 -2371.7983159583 -2257.6316492916 -1972.7983159583 -1650.2983159583 -1447.4649826250 -1354.2983159583 -1289.9649826250 -1135.7983159583  -968.1316492916  -850.1316492916  -723.6316492916  -546.2983159583  -306.4649826250  -168.7983159583  -190.1316492916   -70.9649826250   -37.4649826250  -346.9649826250  -675.7983159583  -941.9649826250 -1048.6316492916  -992.1316492916  -816.7983159583  -635.9649826250  -498.1316492916  -402.6316492916  -360.1316492916  -360.2983159583  -488.2983159583  -564.1316492916  -419.6316492916  -281.6316492916   -84.2983159583   162.7016840417   274.5350173750   289.2016840417   319.7016840417   272.0350173750   133.0350173750   -19.4649826250  -156.6316492916  -289.7983159583  -429.7983159583  -499.9649826250  -436.6316492916  -361.2983159583  -405.6316492916  -482.9649826250  -549.6316492916  -592.4649826250  -604.6316492916  -553.4649826250  -489.4649826250  -412.7983159583  -383.9649826250  -415.4649826250  -419.9649826250  -373.2983159583  -323.6316492916  -322.4649826250  -351.1316492916  -393.7983159583  -414.7983159583  -429.6316492916  -417.6316492916  -382.2983159583  -371.6316492916  -379.2983159583  -384.4649826250  -374.9649826250  -358.1316492916  -343.7983159583  -346.9649826250  -374.7983159583  -400.7983159583  -417.7983159583  -421.9649826250  -427.1316492916  -439.9649826250  -451.9649826250  -464.6316492916  -475.6316492916  -490.2983159583  -502.7983159583  -510.1316492916  -520.7983159583  -535.1316492916  -548.2983159583  -554.4649826250  -549.1316492916  -551.7983159583  -575.7983159583  -606.6316492916  -633.1316492916  -651.4649826250  -667.1316492916  -688.6316492916  -714.7983159583  -727.6316492916  -736.4649826250  -745.1316492916  -748.9649826250  -751.7983159583  -754.4649826250  -758.1316492916  -758.9649826250  -759.1316492916  -755.4649826250  -748.6316492916  -741.9649826250  -739.7983159583  -738.1316492916  -729.4649826250  -715.6316492916  -703.1316492916  -692.9649826250  -690.2983159583  -684.9649826250  -673.2983159583  -658.9649826250  -643.9649826250  -634.1316492916  -624.2983159583  -611.9649826250  -594.7983159583  -576.1316492916  -559.9649826250  -543.1316492916  -526.6316492916  -509.6316492916  -494.6316492916  -481.6316492916  -467.4649826250  -448.2983159583  -429.9649826250  -413.2983159583  -404.1316492916  -394.6316492916  -382.1316492916  -368.1316492916  -358.7983159583  -354.9649826250  -348.9649826250  -340.2983159583  -329.4649826250  -320.1316492916  -314.4649826250  -306.4649826250  -295.7983159583  -289.2983159583  -282.2983159583  -280.1316492916  -272.2983159583  -258.9649826250  -245.2983159583  -234.4649826250  -226.2983159583  -215.6316492916  -201.4649826250  -188.9649826250  -179.2983159583  -172.2983159583  -164.1316492916  -156.4649826250  -145.1316492916  -135.6316492916  -133.6316492916  -129.2983159583  -124.7983159583  -121.1316492916  -116.9649826250  -114.6316492916  -111.2983159583  -106.1316492916  -100.6316492916   -97.6316492916   -99.4649826250   -97.4649826250   -90.1316492916   -86.9649826250   -87.4649826250   -89.4649826250   -87.7983159583   -82.7983159583   -77.7983159583   -73.7983159583   -73.4649826250   -73.1316492916   -69.1316492916   -63.4649826250   -62.1316492916   -59.7983159583   -53.7983159583   -48.2983159583   -42.9649826250   -37.6316492916   -32.9649826250   -26.9649826250   -18.7983159583   -10.1316492916    -2.9649826250    -1.6316492916    -3.2983159583    -1.7983159583     1.7016840417     6.8683507084     9.5350173750    11.5350173750    14.5350173750    16.3683507084    15.8683507084    15.5350173750    18.2016840417    24.0350173750    28.7016840417    30.2016840417    28.7016840417    31.3683507084    38.7016840417    46.7016840417    52.0350173750    48.3683507084    47.2016840417    50.8683507084    56.8683507084    63.2016840417    67.7016840417    68.5350173750    68.8683507084    67.5350173750    64.7016840417    58.5350173750    55.0350173750    54.2016840417    54.0350173750    57.5350173750    56.8683507084    60.5350173750    66.7016840417    72.3683507084    73.8683507084    72.5350173750    68.3683507084    69.3683507084    73.8683507084    75.3683507084    73.5350173750    73.5350173750    76.5350173750    79.3683507084    80.7016840417    75.7016840417    74.2016840417    74.7016840417    73.5350173750    69.3683507084    63.7016840417    61.2016840417    62.8683507084    68.5350173750    67.7016840417    70.2016840417    75.0350173750    78.3683507084    80.5350173750    79.3683507084    78.3683507084    78.5350173750    79.8683507084    82.0350173750    85.3683507084    87.8683507084    91.0350173750    93.3683507084    99.2016840417    98.3683507084    91.6369954558    83.5723068698    77.5076182839    74.1095963646    69.0449077787    65.4802191927    61.9155306068    58.8508420208 
   32.0396317054    31.7107018949    32.5484387510    36.5528422738    39.0572457966    39.8949826528    41.3993861756    44.5704563651    48.2371230318    50.0704563651    50.0704563651    48.9037896984    48.4037896984    53.4037896984    56.7371230318    57.4037896984    59.2371230318    61.4037896984    65.9037896984    66.5704563651    68.7371230318    71.4037896984    72.5704563651    76.0704563651    76.4037896984    74.7371230318    73.4037896984    74.4037896984    78.5704563651    76.7371230318    73.0704563651    70.5704563651    72.5704563651    77.5704563651    77.5704563651    73.7371230318    66.5704563651    63.4037896984    64.4037896984    59.7371230318    50.7371230318    43.9037896984    42.7371230318    42.9037896984    39.5704563651    32.7371230318    26.9037896984    24.7371230318    23.0704563651    18.2371230318    12.0704563651     9.2371230318    12.7371230318    15.0704563651    15.7371230318    17.0704563651    19.7371230318    24.7371230318    28.4037896984    27.4037896984    24.9037896984    25.4037896984    30.5704563651    36.0704563651    38.7371230318    40.0704563651    41.7371230318    44.9037896984    49.9037896984    54.7371230318    53.5704563651    52.0704563651    56.2371230318    61.2371230318    59.9037896984    56.5704563651    55.9037896984    57.2371230318    57.0704563651    52.4037896984    46.2371230318    43.5704563651    46.5704563651    52.4037896984    54.5704563651    51.2371230318    50.4037896984    50.4037896984    48.4037896984    44.2371230318    41.7371230318    41.2371230318    43.5704563651    48.0704563651    49.4037896984    48.5704563651    49.2371230318    51.7371230318    53.9037896984    51.5704563651    43.4037896984    39.7371230318    39.2371230318    40.9037896984    39.4037896984    38.5704563651    41.7371230318    48.2371230318    53.5704563651    54.7371230318    56.9037896984    61.7371230318    68.5704563651    75.2371230318    77.2371230318    75.5704563651    75.0704563651    75.0704563651    74.7371230318    72.7371230318    74.9037896984    74.2371230318    73.2371230318    72.5704563651    68.0704563651    61.5704563651    55.5704563651    55.0704563651    51.5704563651    45.0704563651    39.0704563651    36.0704563651    38.7371230318    43.5704563651    47.2371230318    46.5704563651    41.9037896984    42.0704563651    38.2371230318    30.9037896984    25.4037896984    22.4037896984    17.2371230318     8.4037896984     5.9037896984     2.4037896984    -7.9295436349   -24.4295436349   -50.9295436349   -77.0962103016   -94.0962103016  -124.9295436349  -183.9295436349  -278.9295436349  -377.5962103016  -503.2628769682  -643.7628769682  -741.4295436349  -863.7628769682 -1008.9295436349 -1074.9295436349 -1070.2628769682 -1059.0962103016 -1089.7628769682 -1165.2628769682 -1135.2628769682 -1056.5962103016  -972.0962103016  -923.4295436349  -868.2628769682  -744.2628769682  -506.7628769682  -290.2628769682  -215.7628769682  -102.5962103016    -1.9295436349    21.0704563651    34.4037896984    80.2371230318   172.5704563651   308.9037896984   312.4037896984   186.9037896984    58.4037896984   -11.2628769682   -88.7628769682   -43.5962103016    43.2371230318   193.4037896984   356.4037896984   479.9037896984   604.4037896984   670.9037896984   756.4037896984   820.9037896984   860.9037896984   814.5704563651   796.5704563651   949.4037896984  1147.0704563651  1319.7371230318  1417.4037896984  1360.5704563651  1184.5704563651   920.5704563651   746.5704563651   607.4037896984   498.2371230318   491.7371230318   466.7371230318   439.9037896984   411.5704563651   452.2371230318   505.2371230318   470.0704563651   393.2371230318   331.9037896984   369.9037896984   386.4037896984   388.5704563651   452.4037896984   517.7371230318   584.9037896984   659.7371230318   673.2371230318   620.5704563651   561.5704563651   541.4037896984   547.7371230318   527.7371230318   488.0704563651   459.0704563651   449.9037896984   457.2371230318   453.5704563651   455.2371230318   450.0704563651   441.9037896984   422.5704563651   403.4037896984   387.9037896984   378.4037896984   368.9037896984   350.0704563651   330.2371230318   314.9037896984   305.9037896984   295.4037896984   281.4037896984   257.5704563651   233.7371230318   212.2371230318   197.2371230318   177.7371230318   156.4037896984   129.0704563651   107.9037896984    87.2371230318    67.9037896984    45.2371230318    16.4037896984    -4.0962103016   -23.2628769682   -34.9295436349   -43.7628769682   -52.2628769682   -61.4295436349   -68.7628769682   -75.7628769682   -83.4295436349   -91.2628769682   -98.2628769682  -100.7628769682  -102.2628769682  -105.7628769682  -107.9295436349  -102.5962103016   -97.9295436349   -90.0962103016   -86.9295436349   -85.0962103016   -80.7628769682   -73.0962103016   -65.9295436349   -62.7628769682   -60.0962103016   -52.5962103016   -41.5962103016   -30.7628769682   -22.9295436349   -20.7628769682   -13.2628769682    -2.9295436349     8.0704563651    14.9037896984    21.4037896984    26.5704563651    33.5704563651    41.9037896984    48.5704563651    52.5704563651    61.2371230318    74.5704563651    84.4037896984    85.4037896984    87.7371230318    91.2371230318    90.9037896984    93.7371230318    95.4037896984    94.5704563651    95.0704563651    99.2371230318   101.9037896984   102.5704563651   100.0704563651   101.7371230318   102.4037896984   100.9037896984   100.5704563651   103.9037896984   106.7371230318   116.9037896984   130.7371230318   135.9037896984   132.7371230318   132.5704563651   132.2371230318   131.2371230318   129.0704563651   124.0704563651   121.7371230318   121.9037896984   123.7371230318   120.0704563651   114.7371230318   107.7371230318   102.9037896984    96.2371230318    87.5704563651    78.7371230318    78.2371230318    80.0704563651    85.0704563651    86.4037896984    83.7371230318    82.5704563651    80.0704563651    79.9037896984    79.0704563651    80.2371230318    80.7371230318    87.7371230318    96.2371230318    99.0704563651    97.0704563651    99.0704563651   100.4037896984   101.9037896984    99.7371230318    94.7371230318    91.7371230318    91.4037896984    97.0704563651   100.2371230318    99.9037896984    95.4037896984    92.9037896984    90.2371230318    86.0704563651    83.0704563651    81.5704563651    78.0704563651    77.2371230318    75.4037896984    71.4037896984    69.9037896984    72.9037896984    75.4037896984    72.4037896984    65.7371230318    62.9037896984    66.0704563651    71.0704563651    67.9037896984    63.2371230318    60.7371230318    59.9037896984    63.2371230318    63.0704563651    60.0704563651    58.7371230318    61.4037896984    64.5704563651    68.5704563651    70.7371230318    73.5704563651    75.2371230318    77.7371230318    76.7371230318    79.9037896984    83.9037896984    89.0704563651    95.7371230318    94.9037896984    90.7371230318    87.7371230318    88.0704563651    88.7371230318    88.4037896984    84.0704563651    81.9037896984    82.2371230318    83.5704563651    83.0704563651    81.7371230318    79.7371230318    79.2371230318    78.0704563651    74.2371230318    70.4037896984    70.4037896984    75.0704563651    77.7371230318    76.0704563651    71.0704563651    67.9037896984    65.5704563651    61.2371230318    56.9037896984    51.2371230318    50.7371230318    52.9037896984    51.5704563651    48.5704563651    44.4037896984    41.9037896984    41.0704563651    38.4037896984    33.9037896984    28.9037896984    26.0704563651    27.0704563651    30.0704563651    30.4037896984    27.9037896984    25.9037896984    21.7371230318    17.2371230318    14.9037896984     9.9037896984     5.9037896984     5.2371230318     4.2371230318    -0.9295436349    -6.2628769682   -10.2628769682   -12.4295436349   -15.4295436349   -20.7628769682   -25.5962103016   -28.2628769682   -29.0962103016   -29.0962103016   -31.0962103016   -34.9295436349   -33.2628769682   -28.4295436349   -24.0962103016   -21.5962103016   -18.5962103016   -17.4295436349   -15.0962103016   -11.7672804911   -11.6050173472   -11.4427542034    -8.2804910595    -5.7848945823    -4.6226314385    -4.6270349613    -3.6314384841 
   -2.1187050360    -5.0207833733    -7.4228617106    -7.3249400480    -3.3936850520     0.5375699440     0.6354916067    -1.4332533973    -2.9332533973    -3.7665867306    -4.9332533973    -5.2665867306    -4.2665867306     1.7334132694     9.4000799360    13.4000799360    11.4000799360     9.9000799360     9.9000799360    11.2334132694     9.4000799360     5.4000799360     5.4000799360     8.7334132694    12.0667466027    11.9000799360     9.4000799360     7.5667466027     7.7334132694     7.0667466027     1.7334132694    -3.5999200640    -6.4332533973    -3.2665867306     0.0667466027    -0.5999200640    -3.9332533973    -5.9332533973    -8.4332533973   -10.9332533973   -13.4332533973   -16.0999200640   -16.4332533973   -13.0999200640    -9.2665867306    -8.2665867306    -8.4332533973    -7.9332533973    -3.5999200640    -4.0999200640    -5.9332533973   -11.9332533973   -13.7665867306   -13.0999200640   -10.0999200640    -6.2665867306    -4.5999200640    -4.9332533973    -3.9332533973    -2.4332533973    -1.5999200640    -2.4332533973    -3.5999200640    -4.4332533973    -3.5999200640     0.5667466027     0.9000799360     4.9000799360     7.9000799360    10.0667466027     8.7334132694     0.9000799360    -5.4332533973    -8.5999200640    -9.0999200640   -14.0999200640   -21.7665867306   -25.9332533973   -24.2665867306   -20.9332533973   -21.9332533973   -28.7665867306   -32.7665867306   -33.7665867306   -31.2665867306   -28.5999200640   -27.9332533973   -25.4332533973   -19.0999200640   -13.7665867306   -11.4332533973    -8.5999200640    -7.5999200640    -6.0999200640    -7.4332533973    -8.7665867306    -8.4332533973    -5.2665867306    -0.2665867306     2.5667466027     1.4000799360    -1.9332533973    -3.9332533973    -1.2665867306     1.5667466027     6.5667466027     3.2334132694     0.4000799360     3.5667466027     6.9000799360     8.0667466027     6.9000799360     5.4000799360     4.7334132694     4.2334132694     1.9000799360    -3.4332533973    -6.2665867306    -6.7665867306    -8.9332533973   -12.2665867306   -17.4332533973   -16.5999200640   -15.0999200640   -13.0999200640   -12.4332533973   -13.7665867306   -15.4332533973   -14.2665867306   -10.4332533973   -10.2665867306   -10.7665867306    -8.9332533973    -3.2665867306     3.4000799360     9.0667466027     9.7334132694    11.9000799360    18.4000799360    25.7334132694    28.5667466027    27.7334132694    29.2334132694    33.5667466027    36.9000799360    34.7334132694    32.2334132694    31.4000799360    34.7334132694    36.0667466027    35.9000799360    33.4000799360    32.7334132694    31.7334132694    30.0667466027    26.2334132694    20.9000799360    16.7334132694    16.9000799360    17.9000799360    17.0667466027    16.0667466027    17.4000799360    18.2334132694    16.0667466027    10.9000799360     6.5667466027    -0.4332533973   -15.4332533973   -27.9332533973   -33.0999200640   -35.9332533973   -33.5999200640   -35.2665867306   -56.0999200640   -87.5999200640  -107.4332533973  -123.9332533973  -142.2665867306  -156.9332533973  -179.2665867306  -226.0999200640  -317.7665867306  -422.7665867306  -460.2665867306  -490.9332533973  -558.9332533973  -635.9332533973  -677.9332533973  -777.7665867306  -893.0999200640  -869.7665867306  -749.5999200640  -623.5999200640  -584.2665867306  -636.9332533973  -708.2665867306  -620.9332533973  -426.2665867306  -192.2665867306   -61.0999200640   -38.5999200640     2.2334132694    64.5667466027    87.4000799360   270.0667466027   495.5667466027   488.4000799360   266.5667466027    62.2334132694   -43.0999200640   -13.4332533973    59.0667466027    76.2334132694    80.5667466027    25.5667466027     1.2334132694   108.5667466027   191.5667466027   229.2334132694   282.4000799360   269.9000799360   217.2334132694   263.7334132694   431.2334132694   572.9000799360   705.7334132694   761.2334132694   767.4000799360   691.0667466027   613.9000799360   596.9000799360   590.7334132694   539.9000799360   482.5667466027   442.9000799360   424.4000799360   398.4000799360   396.2334132694   379.5667466027   343.4000799360   311.0667466027   286.4000799360   297.2334132694   339.9000799360   385.0667466027   379.5667466027   348.5667466027   322.5667466027   306.7334132694   325.0667466027   354.9000799360   346.5667466027   309.4000799360   285.0667466027   271.7334132694   268.2334132694   266.4000799360   250.4000799360   231.0667466027   214.0667466027   184.5667466027   156.4000799360   134.0667466027   107.5667466027    79.0667466027    52.4000799360    29.4000799360     8.0667466027    -4.5999200640   -24.7665867306   -43.0999200640   -67.0999200640   -93.7665867306  -111.4332533973  -134.4332533973  -160.5999200640  -174.9332533973  -185.4332533973  -194.0999200640  -204.2665867306  -213.9332533973  -219.9332533973  -226.5999200640  -230.9332533973  -235.5999200640  -242.4332533973  -246.2665867306  -246.5999200640  -245.7665867306  -248.5999200640  -252.2665867306  -252.4332533973  -250.4332533973  -249.0999200640  -247.4332533973  -242.7665867306  -237.4332533973  -227.9332533973  -218.0999200640  -209.5999200640  -204.5999200640  -200.0999200640  -189.5999200640  -177.4332533973  -167.2665867306  -159.0999200640  -143.7665867306  -131.9332533973  -120.9332533973  -109.7665867306  -103.5999200640   -98.0999200640   -88.7665867306   -82.0999200640   -76.9332533973   -72.4332533973   -66.4332533973   -57.5999200640   -48.7665867306   -48.0999200640   -48.0999200640   -43.4332533973   -36.5999200640   -29.4332533973   -21.4332533973   -19.2665867306   -16.9332533973   -15.7665867306   -13.7665867306   -11.4332533973   -11.0999200640    -9.2665867306    -6.7665867306    -1.9332533973     0.0667466027     3.5667466027     7.5667466027     9.7334132694     7.4000799360     5.7334132694     2.0667466027     2.0667466027     7.0667466027    17.2334132694    23.0667466027    24.7334132694    24.2334132694    25.9000799360    31.2334132694    32.4000799360    26.4000799360    24.5667466027    25.5667466027    28.2334132694    32.0667466027    31.9000799360    29.9000799360    28.7334132694    25.9000799360    21.2334132694    16.5667466027    17.2334132694    24.2334132694    30.7334132694    26.0667466027    22.7334132694    26.7334132694    30.9000799360    37.2334132694    39.7334132694    39.5667466027    41.2334132694    40.5667466027    42.4000799360    45.4000799360    43.7334132694    45.5667466027    43.9000799360    44.5667466027    39.4000799360    37.4000799360    34.7334132694    32.7334132694    31.9000799360    25.9000799360    16.4000799360    10.5667466027    10.5667466027    18.2334132694    20.0667466027    16.2334132694    14.4000799360    13.5667466027    16.0667466027    11.5667466027     6.9000799360     1.9000799360     1.4000799360     3.4000799360     4.4000799360     2.9000799360     1.9000799360     2.7334132694     3.2334132694     0.5667466027    -2.0999200640    -1.9332533973    -0.2665867306    -0.5999200640    -4.7665867306    -9.7665867306    -8.9332533973    -3.5999200640    -2.4332533973    -3.4332533973    -8.5999200640   -12.2665867306    -9.2665867306    -7.7665867306   -10.0999200640   -12.4332533973   -14.5999200640   -16.2665867306   -17.4332533973   -22.0999200640   -27.0999200640   -28.0999200640   -27.0999200640   -23.9332533973   -19.7665867306   -23.5999200640   -24.2665867306   -20.7665867306   -17.2665867306   -15.4332533973   -16.0999200640   -18.0999200640   -15.9332533973   -14.7665867306   -17.2665867306   -16.9332533973   -14.5999200640    -9.5999200640    -3.9332533973    -1.0999200640    -0.0999200640     3.4000799360     4.0667466027     6.0667466027     6.5667466027     5.7334132694     8.5667466027    15.7334132694    18.2334132694    20.4000799360    22.2334132694    21.9000799360    23.5667466027    23.0667466027    18.4000799360    13.7334132694     9.4000799360    10.9000799360    16.9000799360    19.9000799360    19.0667466027    16.0667466027    16.2334132694    16.7334132694    16.4000799360    13.7334132694     9.5667466027    12.6354916067    13.5375699440    13.2729816147    13.0083932854    13.0771382894    14.4792166267    13.3812949640     9.7833733014 
  114.3754343758   127.3801122695   139.0514568297   149.5561347233   156.7274792836   164.3988238439   173.5701684042   185.5748462978   185.5748462978   186.9081796311   186.0748462978   185.7415129645   186.7415129645   191.9081796311   196.0748462978   195.0748462978   189.7415129645   186.7415129645   187.2415129645   190.4081796311   197.9081796311   203.0748462978   206.9081796311   209.0748462978   211.4081796311   210.0748462978   208.0748462978   209.2415129645   212.9081796311   213.0748462978   210.5748462978   211.2415129645   216.2415129645   220.5748462978   227.2415129645   228.4081796311   224.4081796311   221.5748462978   222.2415129645   224.4081796311   221.5748462978   218.0748462978   217.7415129645   218.2415129645   217.5748462978   212.7415129645   204.5748462978   198.4081796311   196.7415129645   196.0748462978   187.0748462978   177.4081796311   171.7415129645   172.5748462978   173.2415129645   168.5748462978   162.7415129645   158.2415129645   154.2415129645   151.4081796311   145.4081796311   141.4081796311   142.4081796311   144.4081796311   141.5748462978   135.2415129645   128.5748462978   125.4081796311   127.2415129645   126.7415129645   120.5748462978   114.0748462978   112.0748462978   113.2415129645   112.4081796311   105.4081796311    98.2415129645    92.4081796311    86.2415129645    78.7415129645    71.0748462978    65.4081796311    64.2415129645    65.2415129645    62.0748462978    52.9081796311    45.7415129645    39.2415129645    36.2415129645    30.2415129645    23.4081796311    16.0748462978    13.2415129645    13.2415129645    14.7415129645    14.9081796311    12.7415129645     8.5748462978     6.0748462978     4.2415129645    -0.4251537022    -6.2584870355    -9.4251537022    -6.7584870355    -8.5918203689   -11.7584870355   -14.7584870355   -15.4251537022   -15.4251537022   -17.9251537022   -23.7584870355   -30.7584870355   -36.2584870355   -39.2584870355   -41.9251537022   -48.0918203689   -51.0918203689   -48.0918203689   -45.5918203689   -45.4251537022   -47.4251537022   -49.5918203689   -50.2584870355   -48.5918203689   -48.9251537022   -48.0918203689   -48.5918203689   -48.0918203689   -44.9251537022   -44.5918203689   -46.0918203689   -48.0918203689   -52.0918203689   -57.0918203689   -62.7584870355   -71.0918203689   -77.9251537022   -83.2584870355   -83.9251537022   -85.5918203689   -88.2584870355   -95.0918203689  -101.2584870355  -105.9251537022  -115.9251537022  -125.9251537022  -136.4251537022  -143.7584870355  -143.2584870355  -143.4251537022  -162.0918203689  -197.4251537022  -239.9251537022  -277.9251537022  -327.0918203689  -417.7584870355  -543.2584870355  -663.2584870355  -746.0918203689  -837.9251537022  -971.7584870355 -1044.7584870355 -1062.5918203689 -1078.2584870355 -1072.4251537022 -1025.9251537022  -984.7584870355  -946.9251537022  -934.2584870355 -1000.9251537022  -973.7584870355  -862.4251537022  -879.0918203689  -814.0918203689  -707.2584870355  -684.5918203689  -604.0918203689  -629.4251537022  -645.5918203689  -541.5918203689  -480.5918203689  -443.5918203689  -379.7584870355  -381.0918203689  -346.4251537022  -266.5918203689  -287.7584870355  -301.0918203689  -133.9251537022    58.9081796311   213.0748462978   401.4081796311   553.2415129645   711.4081796311   795.2415129645   672.5748462978   677.0748462978   716.4081796311   757.9081796311   873.0748462978   928.7415129645   981.0748462978  1049.7415129645  1047.4081796311  1040.0748462978   948.7415129645   770.7415129645   614.5748462978   434.7415129645   373.4081796311   383.4081796311   482.4081796311   457.7415129645   356.5748462978   236.7415129645   148.9081796311   115.5748462978   104.7415129645   101.2415129645   115.4081796311   112.9081796311    83.9081796311    84.0748462978   126.2415129645   226.0748462978   252.4081796311   215.2415129645   164.7415129645   124.5748462978   120.4081796311   122.2415129645   104.0748462978    96.0748462978    93.5748462978    81.9081796311    64.0748462978    45.5748462978    16.2415129645    10.0748462978     5.2415129645     0.7415129645    -8.5918203689   -16.2584870355   -20.4251537022   -26.9251537022   -51.4251537022   -76.9251537022  -103.9251537022  -135.0918203689  -159.7584870355  -182.5918203689  -195.2584870355  -206.7584870355  -205.5918203689  -212.0918203689  -224.2584870355  -246.7584870355  -270.2584870355  -291.5918203689  -308.7584870355  -325.0918203689  -337.9251537022  -344.5918203689  -348.2584870355  -355.9251537022  -365.7584870355  -378.7584870355  -390.7584870355  -396.2584870355  -404.0918203689  -407.5918203689  -412.9251537022  -418.0918203689  -419.0918203689  -420.5918203689  -423.0918203689  -424.2584870355  -427.2584870355  -421.5918203689  -413.5918203689  -405.7584870355  -398.5918203689  -388.0918203689  -375.7584870355  -365.0918203689  -357.0918203689  -353.2584870355  -347.5918203689  -339.0918203689  -332.7584870355  -328.4251537022  -324.5918203689  -318.7584870355  -307.5918203689  -302.4251537022  -301.0918203689  -301.4251537022  -300.5918203689  -298.0918203689  -295.0918203689  -292.5918203689  -288.0918203689  -279.0918203689  -267.9251537022  -257.9251537022  -251.7584870355  -247.7584870355  -240.5918203689  -231.7584870355  -222.4251537022  -215.4251537022  -209.5918203689  -201.7584870355  -193.0918203689  -183.9251537022  -184.0918203689  -191.0918203689  -194.4251537022  -192.9251537022  -190.0918203689  -190.0918203689  -188.4251537022  -185.0918203689  -180.0918203689  -175.5918203689  -175.2584870355  -176.7584870355  -174.9251537022  -171.0918203689  -165.9251537022  -166.0918203689  -164.7584870355  -159.7584870355  -155.7584870355  -156.4251537022  -163.4251537022  -169.0918203689  -170.4251537022  -167.2584870355  -165.7584870355  -167.9251537022  -170.4251537022  -169.4251537022  -166.5918203689  -161.4251537022  -160.5918203689  -161.2584870355  -161.4251537022  -157.5918203689  -151.5918203689  -150.5918203689  -148.7584870355  -147.0918203689  -146.2584870355  -147.9251537022  -152.4251537022  -155.9251537022  -153.5918203689  -149.2584870355  -147.2584870355  -149.2584870355  -150.4251537022  -148.4251537022  -142.4251537022  -137.2584870355  -138.5918203689  -139.0918203689  -138.5918203689  -134.0918203689  -128.7584870355  -127.2584870355  -126.4251537022  -124.0918203689  -122.4251537022  -126.9251537022  -132.9251537022  -138.7584870355  -143.4251537022  -147.0918203689  -150.0918203689  -155.0918203689  -158.4251537022  -157.9251537022  -156.7584870355  -158.4251537022  -164.4251537022  -168.0918203689  -169.2584870355  -167.7584870355  -167.9251537022  -168.0918203689  -165.9251537022  -163.0918203689  -156.5918203689  -152.2584870355  -151.4251537022  -150.2584870355  -148.4251537022  -145.7584870355  -143.2584870355  -141.7584870355  -140.0918203689  -139.2584870355  -135.2584870355  -132.2584870355  -132.4251537022  -129.7584870355  -128.0918203689  -126.0918203689  -124.7584870355  -124.5918203689  -125.2584870355  -123.5918203689  -116.5918203689  -111.2584870355  -107.5918203689  -106.5918203689  -105.0918203689   -99.9251537022   -96.4251537022   -98.9251537022  -102.2584870355  -103.2584870355  -101.2584870355   -98.5918203689   -99.9251537022   -97.9251537022   -95.2584870355   -91.2584870355   -90.9251537022   -92.2584870355   -95.5918203689   -95.7584870355   -91.9251537022   -89.5918203689   -89.4251537022   -85.0918203689   -78.0918203689   -73.2584870355   -71.9251537022   -71.4251537022   -69.0918203689   -67.7584870355   -63.9251537022   -61.5918203689   -62.0918203689   -64.4251537022   -62.9251537022   -58.5918203689   -58.7584870355   -60.7584870355   -64.9251537022   -70.7584870355   -72.0918203689   -70.7584870355   -69.9251537022   -70.9251537022   -71.0918203689   -70.9251537022   -73.0918203689   -78.9251537022   -84.9251537022   -86.5918203689   -84.7584870355   -84.2584870355   -81.2584870355   -78.0918203689   -73.9251537022   -68.2584870355   -65.7584870355   -66.7584870355   -68.2584870355   -68.7584870355   -64.7631649292   -61.4345094894   -56.9391873830   -50.1105319433   -40.2818765036   -32.2865543972   -29.1245656242   -27.4625768511 
  -15.8904456899   -21.1930878036   -29.8290632506   -33.2983720310   -33.1010141447   -34.5703229250   -38.2062983720   -42.8422738191   -41.6756071524   -39.5089404857   -41.5089404857   -45.3422738191   -48.3422738191   -46.8422738191   -44.8422738191   -45.1756071524   -49.3422738191   -49.6756071524   -43.6756071524   -41.0089404857   -43.8422738191   -46.6756071524   -49.6756071524   -50.3422738191   -49.8422738191   -50.6756071524   -53.1756071524   -54.1756071524   -50.5089404857   -47.6756071524   -47.3422738191   -49.8422738191   -51.3422738191   -50.8422738191   -48.3422738191   -45.8422738191   -43.5089404857   -42.1756071524   -36.0089404857   -28.5089404857   -23.3422738191   -22.1756071524   -19.8422738191   -16.5089404857   -14.8422738191   -14.0089404857   -15.8422738191   -15.3422738191   -11.0089404857    -6.3422738191    -5.3422738191    -9.0089404857   -11.8422738191   -12.1756071524   -16.0089404857   -23.8422738191   -31.5089404857   -36.6756071524   -40.0089404857   -39.3422738191   -40.0089404857   -44.0089404857   -46.5089404857   -44.6756071524   -41.3422738191   -40.8422738191   -44.1756071524   -49.0089404857   -53.0089404857   -56.0089404857   -56.6756071524   -58.5089404857   -60.1756071524   -57.5089404857   -54.1756071524   -55.1756071524   -59.6756071524   -60.5089404857   -58.6756071524   -58.5089404857   -60.8422738191   -64.6756071524   -68.3422738191   -66.3422738191   -61.1756071524   -57.1756071524   -57.5089404857   -57.1756071524   -55.8422738191   -55.1756071524   -56.1756071524   -60.8422738191   -63.6756071524   -66.5089404857   -68.6756071524   -73.3422738191   -79.3422738191   -82.0089404857   -79.0089404857   -76.3422738191   -76.6756071524   -79.6756071524   -79.6756071524   -76.8422738191   -73.0089404857   -71.5089404857   -71.5089404857   -69.6756071524   -66.1756071524   -59.0089404857   -55.0089404857   -51.0089404857   -48.0089404857   -45.1756071524   -43.6756071524   -42.5089404857   -42.5089404857   -41.6756071524   -40.6756071524   -38.0089404857   -39.0089404857   -45.6756071524   -52.5089404857   -54.5089404857   -50.0089404857   -48.8422738191   -50.5089404857   -53.0089404857   -54.0089404857   -53.3422738191   -56.1756071524   -61.3422738191   -69.6756071524   -72.8422738191   -71.5089404857   -73.1756071524   -75.5089404857   -72.6756071524   -66.1756071524   -60.3422738191   -59.8422738191   -62.5089404857   -63.8422738191   -61.8422738191   -56.5089404857   -55.0089404857   -54.0089404857   -53.0089404857   -47.5089404857   -41.1756071524   -39.5089404857   -39.0089404857   -38.0089404857   -36.5089404857   -41.8422738191   -55.8422738191   -73.6756071524   -96.5089404857  -126.3422738191  -166.5089404857  -223.0089404857  -305.8422738191  -410.8422738191  -577.8422738191  -771.6756071524  -935.5089404857  -995.3422738191 -1066.6756071524 -1131.0089404857 -1137.6756071524 -1143.0089404857 -1207.0089404857 -1235.8422738191 -1202.1756071524 -1091.3422738191  -981.5089404857  -793.5089404857  -601.3422738191  -439.5089404857  -227.5089404857    23.8243928476   235.9910595143   240.9910595143   236.1577261809   329.1577261809   444.4910595143   530.8243928476   535.3243928476   505.1577261809   446.3243928476   265.3243928476    47.6577261809  -218.5089404857  -408.0089404857  -407.0089404857  -308.3422738191  -172.0089404857   -78.5089404857   104.4910595143   315.3243928476   354.6577261809   266.3243928476   257.3243928476   411.9910595143   540.3243928476   649.9910595143   767.4910595143   961.1577261809  1169.6577261809  1241.6577261809  1154.4910595143  1052.8243928476   916.4910595143   819.8243928476   734.1577261809   626.6577261809   570.8243928476   552.9910595143   483.9910595143   406.9910595143   375.4910595143   338.1577261809   353.6577261809   336.3243928476   284.1577261809   311.8243928476   359.4910595143   331.9910595143   284.3243928476   250.9910595143   226.8243928476   216.4910595143   214.9910595143   221.8243928476   231.9910595143   239.9910595143   229.1577261809   215.4910595143   189.4910595143   164.9910595143   146.3243928476   122.9910595143   101.8243928476    88.8243928476    78.4910595143    61.3243928476    33.4910595143     4.1577261809   -16.1756071524   -33.3422738191   -52.0089404857   -82.3422738191  -111.1756071524  -135.5089404857  -154.6756071524  -176.3422738191  -200.6756071524  -216.6756071524  -233.0089404857  -250.8422738191  -266.3422738191  -283.8422738191  -295.1756071524  -299.5089404857  -302.5089404857  -309.0089404857  -316.5089404857  -319.0089404857  -319.3422738191  -321.5089404857  -322.8422738191  -319.6756071524  -314.8422738191  -312.0089404857  -303.3422738191  -297.1756071524  -292.0089404857  -283.5089404857  -271.3422738191  -259.3422738191  -250.5089404857  -243.6756071524  -234.8422738191  -223.0089404857  -210.3422738191  -200.3422738191  -191.6756071524  -182.3422738191  -171.0089404857  -156.0089404857  -146.5089404857  -138.6756071524  -131.8422738191  -122.3422738191  -116.0089404857  -114.0089404857  -116.6756071524  -115.5089404857  -111.8422738191  -107.8422738191  -107.5089404857  -111.0089404857  -111.3422738191  -108.0089404857  -104.1756071524  -101.1756071524  -100.3422738191   -97.3422738191   -90.5089404857   -85.1756071524   -83.6756071524   -80.5089404857   -75.8422738191   -71.6756071524   -67.6756071524   -67.6756071524   -69.3422738191   -62.3422738191   -54.1756071524   -46.6756071524   -46.3422738191   -52.0089404857   -55.3422738191   -55.1756071524   -56.0089404857   -56.8422738191   -59.0089404857   -64.1756071524   -64.5089404857   -61.5089404857   -60.6756071524   -59.6756071524   -55.1756071524   -52.0089404857   -53.0089404857   -56.8422738191   -58.5089404857   -55.1756071524   -48.0089404857   -42.1756071524   -39.5089404857   -41.3422738191   -41.3422738191   -38.3422738191   -36.8422738191   -41.8422738191   -46.6756071524   -50.0089404857   -52.0089404857   -53.0089404857   -53.6756071524   -54.8422738191   -56.3422738191   -57.8422738191   -60.3422738191   -65.6756071524   -71.3422738191   -75.6756071524   -73.6756071524   -68.6756071524   -66.8422738191   -66.8422738191   -65.5089404857   -61.8422738191   -59.8422738191   -60.8422738191   -62.0089404857   -62.5089404857   -59.5089404857   -55.5089404857   -54.1756071524   -55.5089404857   -57.0089404857   -53.3422738191   -53.5089404857   -56.1756071524   -59.1756071524   -58.6756071524   -57.3422738191   -56.6756071524   -56.8422738191   -60.6756071524   -65.6756071524   -66.6756071524   -66.5089404857   -68.5089404857   -72.6756071524   -73.6756071524   -69.3422738191   -65.6756071524   -63.5089404857   -66.8422738191   -71.6756071524   -73.3422738191   -71.3422738191   -68.3422738191   -69.5089404857   -68.1756071524   -60.1756071524   -53.5089404857   -49.5089404857   -47.8422738191   -45.5089404857   -40.5089404857   -36.6756071524   -36.8422738191   -40.0089404857   -39.6756071524   -33.0089404857   -29.0089404857   -27.5089404857   -29.3422738191   -26.3422738191   -22.0089404857   -20.6756071524   -24.8422738191   -30.3422738191   -36.8422738191   -38.5089404857   -38.8422738191   -40.1756071524   -40.6756071524   -39.8422738191   -38.0089404857   -40.3422738191   -39.6756071524   -44.3422738191   -47.6756071524   -49.5089404857   -51.8422738191   -56.0089404857   -60.3422738191   -64.8422738191   -60.3422738191   -56.5089404857   -59.0089404857   -61.3422738191   -64.8422738191   -65.5089404857   -62.8422738191   -59.1756071524   -63.5089404857   -64.6756071524   -63.0089404857   -61.1756071524   -62.8422738191   -65.8422738191   -63.8422738191   -60.8422738191   -60.5089404857   -63.1756071524   -65.3422738191   -65.5089404857   -62.5089404857   -60.5089404857   -62.8422738191   -66.3422738191   -66.5089404857   -65.5089404857   -63.3422738191   -63.8422738191   -63.1756071524   -64.1756071524   -64.3422738191   -60.3422738191   -58.1756071524   -59.1756071524   -60.3422738191   -60.8422738191   -56.8422738191   -53.5089404857   -51.6756071524   -47.5089404857   -39.7062983720   -33.5703229250   -31.9343474780   -29.6317053643   -25.3290632506   -18.0264211369   -14.3904456899   -14.0878035762 
    6.9914461374     9.8608660786     8.2302860198     8.2663726276    11.4691259022    14.8385458433    17.3746324512    18.5773857257    20.5773857257    23.2440523924    24.0773857257    24.4107190591    26.2440523924    28.9107190591    30.4107190591    23.2440523924    13.0773857257     5.9107190591     6.5773857257    10.0773857257    11.5773857257     9.2440523924     5.9107190591     3.2440523924     0.9107190591    -1.4226142743    -4.4226142743    -4.4226142743    -2.7559476076    -0.7559476076    -0.7559476076     3.9107190591     4.9107190591     6.5773857257     8.2440523924     3.9107190591    -5.2559476076   -10.9226142743   -13.4226142743   -13.7559476076   -17.0892809409   -23.9226142743   -31.0892809409   -37.0892809409   -40.0892809409   -42.4226142743   -49.0892809409   -55.4226142743   -55.2559476076   -51.7559476076   -55.7559476076   -61.0892809409   -62.4226142743   -61.4226142743   -59.4226142743   -57.2559476076   -58.2559476076   -58.0892809409   -52.0892809409   -45.2559476076   -42.0892809409   -42.0892809409   -38.5892809409   -31.7559476076   -25.9226142743   -24.5892809409   -20.5892809409   -15.4226142743    -6.4226142743     1.2440523924     1.4107190591    -4.0892809409    -5.4226142743     0.5773857257     5.5773857257     6.0773857257     1.7440523924    -0.2559476076     3.0773857257     4.9107190591     3.4107190591    -1.0892809409    -6.4226142743    -8.7559476076   -13.4226142743   -17.9226142743   -17.4226142743   -15.4226142743   -12.5892809409   -12.9226142743   -14.4226142743   -16.7559476076   -14.7559476076   -10.5892809409   -10.0892809409   -11.5892809409   -11.4226142743   -12.7559476076    -9.2559476076    -4.4226142743    -2.0892809409    -2.7559476076    -5.7559476076    -4.0892809409    -1.7559476076     0.0773857257    -2.0892809409    -1.9226142743     0.0773857257     1.0773857257     2.2440523924     0.5773857257    -0.7559476076     5.9107190591    10.0773857257    10.2440523924     6.9107190591     4.7440523924     6.5773857257     7.5773857257     5.5773857257     3.7440523924     2.4107190591     1.9107190591     2.0773857257     0.4107190591    -3.4226142743    -7.0892809409    -8.2559476076    -7.4226142743    -5.0892809409    -3.4226142743     0.5773857257     7.2440523924    12.7440523924    16.5773857257    19.5773857257    20.7440523924    23.9107190591    28.5773857257    29.4107190591    27.7440523924    26.7440523924    28.5773857257    30.9107190591    31.0773857257    26.9107190591    21.5773857257    18.2440523924    18.0773857257    21.7440523924    23.4107190591    27.5773857257    32.4107190591    37.0773857257    38.5773857257    37.4107190591    37.4107190591    39.7440523924    45.2440523924    48.2440523924    44.7440523924    43.7440523924    46.7440523924    48.9107190591    42.4107190591    27.0773857257    12.0773857257    -0.7559476076    -8.5892809409   -17.4226142743   -32.4226142743   -51.0892809409   -76.5892809409   -98.4226142743  -119.0892809409  -133.5892809409  -143.5892809409  -160.2559476076  -174.0892809409  -195.4226142743  -245.2559476076  -294.5892809409  -329.4226142743  -401.7559476076  -501.9226142743  -633.0892809409  -809.5892809409  -931.7559476076  -954.2559476076  -943.4226142743  -986.0892809409 -1001.2559476076  -920.9226142743  -866.7559476076  -911.2559476076  -953.7559476076  -814.2559476076  -618.0892809409  -581.2559476076  -617.2559476076  -556.0892809409  -405.0892809409  -163.9226142743   -47.0892809409   -40.0892809409    -3.5892809409   134.5773857257   149.5773857257    58.7440523924   -29.4226142743    37.2440523924   124.0773857257    37.9107190591  -168.4226142743  -157.9226142743    61.7440523924   259.4107190591   401.4107190591   484.2440523924   641.7440523924   792.0773857257   838.2440523924   828.5773857257   883.2440523924   915.4107190591   914.9107190591   886.4107190591   935.7440523924  1010.9107190591  1145.7440523924  1182.7440523924  1089.7440523924   957.9107190591   812.7440523924   666.5773857257   505.2440523924   407.5773857257   373.2440523924   334.7440523924   312.7440523924   325.7440523924   402.9107190591   464.7440523924   433.9107190591   392.4107190591   355.0773857257   341.5773857257   356.0773857257   353.5773857257   354.2440523924   369.9107190591   415.5773857257   426.4107190591   404.2440523924   390.2440523924   375.4107190591   359.2440523924   340.4107190591   309.4107190591   282.4107190591   265.2440523924   245.7440523924   230.0773857257   206.4107190591   183.2440523924   169.0773857257   157.0773857257   126.9107190591    99.4107190591    86.4107190591    73.5773857257    67.7440523924    58.7440523924    50.9107190591    36.0773857257    10.9107190591   -18.7559476076   -44.9226142743   -76.7559476076  -100.2559476076  -119.4226142743  -138.7559476076  -154.7559476076  -156.9226142743  -167.4226142743  -196.7559476076  -227.7559476076  -254.5892809409  -277.9226142743  -299.9226142743  -320.0892809409  -328.7559476076  -335.9226142743  -336.4226142743  -327.5892809409  -319.2559476076  -311.0892809409  -302.5892809409  -291.2559476076  -288.2559476076  -284.7559476076  -269.9226142743  -251.2559476076  -233.4226142743  -219.0892809409  -208.7559476076  -199.0892809409  -192.0892809409  -181.7559476076  -178.4226142743  -178.0892809409  -176.2559476076  -175.9226142743  -174.0892809409  -170.2559476076  -168.2559476076  -164.5892809409  -162.7559476076  -160.2559476076  -157.4226142743  -155.5892809409  -150.5892809409  -142.0892809409  -135.5892809409  -132.2559476076  -129.0892809409  -127.0892809409  -123.2559476076  -111.5892809409  -102.4226142743  -100.0892809409   -97.0892809409   -90.5892809409   -82.2559476076   -76.2559476076   -74.9226142743   -71.2559476076   -68.9226142743   -69.4226142743   -66.4226142743   -62.4226142743   -55.9226142743   -47.0892809409   -39.4226142743   -37.4226142743   -37.9226142743   -33.5892809409   -24.9226142743   -15.5892809409   -10.0892809409   -13.4226142743   -13.9226142743   -13.7559476076   -10.5892809409    -2.5892809409     0.0773857257     1.7440523924     3.9107190591     6.7440523924     4.4107190591    -1.2559476076    -5.4226142743    -6.0892809409    -9.0892809409   -17.4226142743   -25.0892809409   -23.7559476076   -21.7559476076   -19.0892809409   -18.2559476076   -21.2559476076   -25.2559476076   -25.9226142743   -23.9226142743   -22.7559476076   -21.5892809409   -18.5892809409   -14.7559476076   -11.2559476076    -8.5892809409    -9.0892809409    -8.0892809409    -6.7559476076    -6.2559476076    -7.9226142743   -12.0892809409   -18.2559476076   -19.5892809409   -17.0892809409   -18.0892809409   -22.5892809409   -24.0892809409   -23.2559476076   -18.4226142743   -18.0892809409   -17.2559476076   -14.5892809409   -12.0892809409   -12.0892809409   -11.7559476076   -13.7559476076   -13.0892809409    -7.2559476076    -1.9226142743    -4.2559476076    -9.4226142743   -13.7559476076   -14.5892809409   -14.2559476076   -18.5892809409   -23.5892809409   -28.5892809409   -26.4226142743   -22.4226142743   -17.7559476076   -13.4226142743    -5.4226142743     3.5773857257     9.0773857257    12.9107190591    17.9107190591    26.7440523924    36.4107190591    44.2440523924    49.2440523924    50.5773857257    50.9107190591    53.2440523924    53.5773857257    50.9107190591    44.7440523924    37.7440523924    33.4107190591    32.9107190591    30.2440523924    26.0773857257    22.2440523924    18.4107190591    17.7440523924    16.0773857257    10.4107190591     8.0773857257    10.9107190591    12.4107190591    12.5773857257    11.5773857257     9.7440523924    12.5773857257    15.5773857257    11.7440523924     7.7440523924     7.0773857257     7.7440523924     8.2440523924     4.9107190591    -2.0892809409    -7.2559476076    -9.7559476076    -9.9226142743   -12.0892809409   -18.2559476076   -21.5892809409   -18.2559476076   -17.7559476076   -21.7559476076   -25.7559476076   -28.0892809409   -30.2559476076   -31.0892809409   -32.7559476076   -35.9226142743   -34.5892809409   -29.2920342155   -26.1614541567   -28.0308740978   -27.9002940390   -24.4363806469   -21.6391339214   -21.3418871959   -21.2113071371 
   65.7739524953    70.0636509207    76.8533493461    86.8097144382    93.2660795303    97.7224446224   103.3454763811   112.8018414732   116.6351748065   117.1351748065   115.1351748065   115.6351748065   118.4685081398   118.4685081398   114.4685081398   111.4685081398   109.3018414732   109.4685081398   107.9685081398   101.8018414732    97.6351748065    95.3018414732    95.3018414732    93.9685081398    88.6351748065    81.8018414732    77.8018414732    75.1351748065    71.1351748065    66.9685081398    64.8018414732    65.8018414732    71.1351748065    73.4685081398    71.6351748065    70.8018414732    71.3018414732    74.4685081398    76.1351748065    73.3018414732    66.9685081398    66.4685081398    68.8018414732    69.1351748065    67.8018414732    65.3018414732    63.6351748065    62.1351748065    59.4685081398    55.9685081398    54.3018414732    53.3018414732    54.3018414732    53.1351748065    48.9685081398    45.6351748065    47.4685081398    50.1351748065    51.4685081398    47.4685081398    40.9685081398    39.9685081398    40.9685081398    42.6351748065    42.3018414732    40.3018414732    39.4685081398    40.8018414732    42.9685081398    42.1351748065    41.3018414732    41.8018414732    44.4685081398    46.3018414732    43.9685081398    40.1351748065    42.8018414732    48.1351748065    51.8018414732    50.3018414732    47.4685081398    48.3018414732    50.3018414732    53.8018414732    51.1351748065    50.3018414732    51.9685081398    53.4685081398    53.1351748065    47.8018414732    43.6351748065    45.6351748065    47.8018414732    43.9685081398    36.8018414732    32.6351748065    32.4685081398    33.6351748065    33.8018414732    28.4685081398    24.9685081398    19.1351748065    15.9685081398    14.3018414732    11.4685081398    10.3018414732     8.9685081398    11.4685081398    10.6351748065     4.4685081398     0.4685081398    -1.1981585268    -2.1981585268    -4.0314918602    -7.6981585268   -14.6981585268   -21.8648251935   -20.5314918602   -22.5314918602   -27.6981585268   -32.1981585268   -34.3648251935   -31.3648251935   -32.5314918602   -34.6981585268   -34.0314918602   -32.5314918602   -29.5314918602   -28.6981585268   -31.3648251935   -33.0314918602   -28.1981585268   -23.0314918602   -22.3648251935   -23.6981585268   -25.6981585268   -25.0314918602   -23.1981585268   -24.1981585268   -29.0314918602   -33.6981585268   -33.8648251935   -30.6981585268   -29.5314918602   -30.6981585268   -34.6981585268   -38.8648251935   -44.0314918602   -47.5314918602   -53.5314918602   -59.0314918602   -59.5314918602   -58.6981585268   -61.1981585268   -65.6981585268   -69.3648251935   -71.1981585268   -73.6981585268   -78.5314918602   -85.3648251935   -94.3648251935   -98.1981585268   -97.0314918602   -95.3648251935   -95.1981585268   -96.8648251935   -98.3648251935   -98.5314918602   -98.8648251935  -100.8648251935  -104.5314918602  -107.1981585268  -108.1981585268  -107.6981585268  -111.6981585268  -124.3648251935  -138.0314918602  -146.8648251935  -151.8648251935  -156.1981585268  -162.8648251935  -169.3648251935  -186.5314918602  -210.1981585268  -248.3648251935  -305.5314918602  -399.8648251935  -514.1981585268  -607.8648251935  -676.1981585268  -760.6981585268  -841.0314918602  -906.5314918602 -1019.0314918602 -1118.0314918602 -1139.8648251935 -1070.5314918602  -976.3648251935  -906.5314918602  -815.5314918602  -669.3648251935  -571.8648251935  -496.8648251935  -358.6981585268  -280.5314918602  -280.6981585268  -239.0314918602  -117.1981585268   -65.3648251935    28.1351748065   233.4685081398   415.8018414732   434.8018414732   306.8018414732   175.3018414732    94.4685081398   -52.6981585268   -87.6981585268   -39.3648251935   -42.3648251935    32.1351748065   213.1351748065   357.6351748065   411.3018414732   509.3018414732   596.8018414732   539.9685081398   433.3018414732   401.6351748065   471.9685081398   561.6351748065   549.1351748065   600.1351748065   651.6351748065   702.3018414732   746.4685081398   725.9685081398   645.3018414732   543.9685081398   410.8018414732   317.4685081398   282.6351748065   270.6351748065   234.6351748065   166.8018414732   121.4685081398   122.3018414732   170.6351748065   174.8018414732   145.4685081398    98.3018414732    63.8018414732    44.3018414732    25.3018414732    44.4685081398   109.8018414732   152.8018414732   139.8018414732   114.1351748065   111.1351748065   140.1351748065   167.9685081398   168.6351748065   150.8018414732   131.1351748065    98.4685081398    67.4685081398    41.1351748065    27.8018414732    16.4685081398     2.1351748065   -12.3648251935   -28.0314918602   -40.3648251935   -59.1981585268   -85.8648251935  -111.5314918602  -130.5314918602  -149.8648251935  -168.0314918602  -185.3648251935  -199.1981585268  -212.3648251935  -224.8648251935  -240.3648251935  -255.6981585268  -270.3648251935  -282.0314918602  -290.8648251935  -295.0314918602  -294.8648251935  -291.5314918602  -289.1981585268  -291.3648251935  -297.0314918602  -301.5314918602  -297.5314918602  -293.5314918602  -289.0314918602  -287.5314918602  -287.5314918602  -284.8648251935  -284.0314918602  -281.6981585268  -284.3648251935  -287.1981585268  -288.1981585268  -291.6981585268  -292.6981585268  -290.8648251935  -284.0314918602  -273.3648251935  -266.1981585268  -255.8648251935  -252.0314918602  -248.6981585268  -245.1981585268  -238.6981585268  -230.1981585268  -227.1981585268  -224.6981585268  -222.6981585268  -217.0314918602  -207.1981585268  -201.1981585268  -200.1981585268  -198.5314918602  -195.8648251935  -191.1981585268  -194.8648251935  -195.8648251935  -192.6981585268  -183.5314918602  -177.3648251935  -176.1981585268  -177.5314918602  -176.1981585268  -169.3648251935  -163.8648251935  -161.6981585268  -158.6981585268  -153.5314918602  -147.1981585268  -142.5314918602  -141.1981585268  -140.0314918602  -140.3648251935  -137.5314918602  -135.5314918602  -135.5314918602  -137.5314918602  -132.0314918602  -122.5314918602  -116.8648251935  -115.6981585268  -115.5314918602  -114.0314918602  -107.5314918602  -102.5314918602  -100.6981585268  -100.1981585268   -93.3648251935   -83.0314918602   -76.8648251935   -75.1981585268   -75.0314918602   -70.5314918602   -62.5314918602   -58.5314918602   -60.0314918602   -59.6981585268   -56.0314918602   -52.0314918602   -51.5314918602   -52.0314918602   -53.8648251935   -52.8648251935   -49.8648251935   -48.0314918602   -49.1981585268   -51.8648251935   -51.5314918602   -47.5314918602   -49.3648251935   -53.0314918602   -55.3648251935   -53.8648251935   -50.8648251935   -45.8648251935   -45.1981585268   -46.1981585268   -46.0314918602   -43.8648251935   -43.8648251935   -45.8648251935   -46.0314918602   -44.1981585268   -41.5314918602   -41.1981585268   -43.1981585268   -44.0314918602   -39.5314918602   -34.0314918602   -29.0314918602   -27.5314918602   -27.5314918602   -24.0314918602   -18.3648251935   -18.5314918602   -22.5314918602   -26.3648251935   -26.6981585268   -25.5314918602   -27.0314918602   -30.5314918602   -33.5314918602   -36.5314918602   -38.3648251935   -43.3648251935   -52.3648251935   -63.1981585268   -70.8648251935   -77.5314918602   -82.3648251935   -85.6981585268   -88.1981585268   -87.1981585268   -86.6981585268   -89.8648251935   -87.6981585268   -85.3648251935   -82.8648251935   -77.6981585268   -72.6981585268   -68.8648251935   -64.8648251935   -58.5314918602   -49.8648251935   -42.0314918602   -35.8648251935   -32.8648251935   -29.3648251935   -27.1981585268   -25.5314918602   -25.3648251935   -29.6981585268   -30.1981585268   -23.5314918602   -22.5314918602   -27.5314918602   -31.6981585268   -31.5314918602   -29.1981585268   -27.0314918602   -26.8648251935   -31.8648251935   -32.6981585268   -26.6981585268   -19.0314918602   -15.3648251935   -12.3648251935    -8.3648251935    -4.5314918602    -4.6981585268    -5.0314918602    -4.8648251935    -2.3648251935     0.4685081398     2.6351748065     3.3018414732    -0.6981585268    -0.6981585268     3.1351748065     1.6788097144    -2.7775553776    -5.0672538030    -3.1902855618    -2.4799839872    -3.7696824126    -6.3927141713    -5.6824125967 
    1.0130771284     5.5886042167    11.1641313050    13.4063250601    14.8151854817    19.2240459034    23.4662396584    27.7084334134    31.8751000801    35.2084334134    40.0417667467    45.0417667467    44.3751000801    37.2084334134    34.8751000801    38.7084334134    43.0417667467    42.0417667467    37.7084334134    36.0417667467    35.7084334134    33.7084334134    33.0417667467    29.2084334134    25.0417667467    24.5417667467    25.5417667467    22.0417667467    18.2084334134    19.0417667467    17.7084334134    14.2084334134    12.0417667467    10.3751000801     8.5417667467     8.0417667467     8.3751000801     6.7084334134     2.8751000801     2.2084334134     3.8751000801     5.8751000801     4.0417667467     1.8751000801     2.7084334134     7.2084334134    14.2084334134    18.8751000801    14.8751000801    12.7084334134    13.8751000801    16.5417667467    18.0417667467    15.0417667467    12.2084334134    12.0417667467    10.8751000801     9.2084334134     6.3751000801     5.0417667467     5.2084334134     6.3751000801     4.7084334134     0.0417667467    -0.4582332533     1.2084334134     5.7084334134     8.2084334134     5.5417667467     5.7084334134    10.0417667467    13.7084334134    17.3751000801    18.3751000801    20.7084334134    27.3751000801    34.7084334134    35.7084334134    34.2084334134    34.2084334134    34.0417667467    34.8751000801    31.5417667467    26.7084334134    25.5417667467    29.2084334134    32.3751000801    31.3751000801    26.5417667467    21.5417667467    19.8751000801    15.8751000801    10.2084334134     3.2084334134    -2.1248999199    -4.9582332533    -5.4582332533    -7.7915665866   -14.4582332533   -19.2915665866   -20.2915665866   -22.7915665866   -28.1248999199   -32.9582332533   -34.6248999199   -32.6248999199   -30.6248999199   -31.2915665866   -34.6248999199   -33.2915665866   -28.4582332533   -21.2915665866   -18.2915665866   -22.1248999199   -22.9582332533   -20.7915665866   -19.2915665866   -20.4582332533   -22.1248999199   -22.2915665866   -18.7915665866   -13.6248999199   -11.7915665866   -13.2915665866   -12.7915665866   -11.4582332533   -10.6248999199   -11.9582332533   -15.1248999199   -13.4582332533    -9.1248999199    -4.1248999199    -1.1248999199     1.2084334134     1.0417667467     3.0417667467     3.0417667467    -0.1248999199    -6.4582332533    -9.9582332533    -9.9582332533    -6.7915665866    -4.4582332533    -7.6248999199    -7.4582332533    -1.9582332533     1.7084334134    -5.1248999199   -19.4582332533   -28.9582332533   -33.1248999199   -36.6248999199   -50.1248999199   -75.1248999199   -95.1248999199  -101.7915665866  -104.7915665866  -119.6248999199  -141.7915665866  -141.9582332533  -143.4582332533  -183.6248999199  -277.7915665866  -393.6248999199  -492.7915665866  -586.6248999199  -671.1248999199  -776.9582332533  -874.4582332533  -958.2915665866  -974.6248999199  -959.4582332533  -921.7915665866  -840.9582332533  -721.9582332533  -607.2915665866  -601.6248999199  -599.6248999199  -487.1248999199  -309.9582332533  -106.2915665866    39.8751000801   168.2084334134   359.5417667467   391.5417667467   335.3751000801   419.0417667467   435.7084334134   397.7084334134   337.2084334134   154.3751000801  -175.2915665866  -341.7915665866  -256.9582332533   -79.2915665866    78.5417667467   170.5417667467   177.7084334134   213.5417667467   256.5417667467   426.8751000801   693.3751000801   722.5417667467   721.0417667467   776.3751000801   840.5417667467   997.7084334134  1270.7084334134  1499.8751000801  1496.7084334134  1300.2084334134  1093.2084334134   955.2084334134   947.5417667467   911.2084334134   814.0417667467   726.5417667467   624.5417667467   533.5417667467   513.5417667467   469.8751000801   393.0417667467   304.8751000801   242.8751000801   183.2084334134   152.5417667467   179.7084334134   207.8751000801   193.0417667467   179.3751000801   165.2084334134   161.3751000801   177.5417667467   195.5417667467   230.0417667467   244.8751000801   248.8751000801   261.7084334134   280.5417667467   277.2084334134   266.2084334134   253.5417667467   228.8751000801   194.0417667467   160.3751000801   129.7084334134   100.7084334134    71.7084334134    38.2084334134     3.2084334134   -28.1248999199   -53.9582332533   -77.2915665866  -102.6248999199  -129.1248999199  -139.2915665866  -147.6248999199  -166.4582332533  -186.4582332533  -202.6248999199  -216.7915665866  -231.9582332533  -243.1248999199  -256.9582332533  -262.2915665866  -263.7915665866  -260.4582332533  -258.7915665866  -258.2915665866  -255.1248999199  -243.2915665866  -230.7915665866  -224.6248999199  -217.6248999199  -210.4582332533  -202.9582332533  -195.6248999199  -188.2915665866  -182.1248999199  -175.7915665866  -169.6248999199  -158.9582332533  -152.7915665866  -147.7915665866  -141.4582332533  -132.2915665866  -125.6248999199  -124.7915665866  -124.2915665866  -123.1248999199  -120.4582332533  -115.6248999199  -110.4582332533  -106.4582332533  -101.9582332533   -92.6248999199   -84.1248999199   -79.1248999199   -77.7915665866   -78.4582332533   -75.4582332533   -70.9582332533   -68.6248999199   -65.4582332533   -62.1248999199   -56.2915665866   -48.7915665866   -45.4582332533   -42.4582332533   -39.2915665866   -28.1248999199   -20.7915665866   -16.4582332533   -14.7915665866   -12.1248999199    -8.1248999199    -4.4582332533    -2.2915665866    -1.4582332533    -1.7915665866     1.0417667467     6.2084334134     8.0417667467     9.5417667467    11.3751000801    16.2084334134    16.2084334134    15.3751000801    16.3751000801    19.3751000801    26.3751000801    38.2084334134    43.5417667467    43.5417667467    43.3751000801    49.7084334134    54.0417667467    50.8751000801    47.3751000801    42.7084334134    41.0417667467    42.2084334134    40.2084334134    37.0417667467    33.8751000801    31.7084334134    28.5417667467    22.7084334134    15.7084334134    11.5417667467    11.0417667467     9.2084334134     6.2084334134     3.3751000801     1.0417667467     3.8751000801     6.2084334134     4.8751000801     3.3751000801     3.5417667467     5.5417667467     7.7084334134     8.7084334134     6.2084334134     6.8751000801     9.8751000801    14.7084334134    15.7084334134    13.8751000801    14.2084334134    16.3751000801    19.3751000801    22.3751000801    23.3751000801    23.8751000801    25.2084334134    25.8751000801    25.2084334134    19.7084334134    16.0417667467    17.8751000801    20.2084334134    22.0417667467    21.5417667467    21.5417667467    22.8751000801    22.0417667467    16.2084334134     9.0417667467     6.3751000801     9.0417667467    13.0417667467    16.2084334134    17.7084334134    22.0417667467    25.0417667467    26.5417667467    28.0417667467    21.7084334134    20.5417667467    23.8751000801    27.2084334134    28.3751000801    28.3751000801    30.0417667467    32.2084334134    33.3751000801    32.5417667467    27.8751000801    25.0417667467    24.7084334134    28.2084334134    28.8751000801    28.0417667467    31.7084334134    36.0417667467    40.0417667467    39.7084334134    39.2084334134    40.2084334134    40.3751000801    40.2084334134    38.2084334134    35.5417667467    35.2084334134    35.2084334134    33.7084334134    31.3751000801    29.0417667467    25.7084334134    23.3751000801    20.7084334134    16.8751000801    16.0417667467    15.7084334134    20.3751000801    26.0417667467    28.0417667467    26.2084334134    24.0417667467    25.0417667467    32.8751000801    35.8751000801    32.3751000801    29.2084334134    28.0417667467    29.8751000801    30.0417667467    28.7084334134    28.3751000801    31.3751000801    33.5417667467    32.5417667467    30.0417667467    32.5417667467    38.8751000801    44.7084334134    39.8751000801    37.0417667467    38.0417667467    41.3751000801    45.8751000801    45.2084334134    43.8751000801    43.3751000801    44.7084334134    43.8751000801    38.8751000801    33.2084334134    30.3751000801    30.5417667467    31.3751000801    29.0417667467    26.2995729917    26.0573792367    27.4818521484    26.4063250601    22.8307979717    20.2552708834    17.8464104617    16.6042167067 
