  -36.4409248864   -41.4713980219   -47.1685378241   -51.0323442930   -54.0628174285   -56.7599572307   -59.4570970329   -61.4875701684   -59.3209035017   -58.6542368351   -58.1542368351   -56.1542368351   -53.3209035017   -50.8209035017   -50.6542368351   -50.3209035017   -50.1542368351   -49.8209035017   -47.6542368351   -46.8209035017   -48.8209035017   -50.6542368351   -49.9875701684   -49.1542368351   -46.3209035017   -42.1542368351   -38.1542368351   -35.6542368351   -35.6542368351   -39.3209035017   -40.3209035017   -38.1542368351   -33.3209035017   -26.9875701684   -21.6542368351   -16.8209035017   -10.8209035017    -5.4875701684    -3.4875701684    -1.4875701684    -1.4875701684    -1.9875701684    -2.3209035017    -2.3209035017    -2.4875701684     1.5124298316     5.0124298316     7.8457631649     8.0124298316     7.0124298316     5.1790964983     0.5124298316    -3.6542368351    -5.3209035017    -4.9875701684    -5.4875701684    -6.4875701684    -6.6542368351    -7.3209035017    -8.4875701684    -8.8209035017    -8.9875701684    -9.3209035017   -10.4875701684    -9.8209035017   -10.4875701684   -11.3209035017    -8.9875701684    -6.4875701684    -5.9875701684    -6.9875701684    -6.8209035017    -3.9875701684    -0.3209035017     4.5124298316     8.0124298316    11.6790964983    17.8457631649    22.1790964983    24.8457631649    25.3457631649    26.1790964983    27.3457631649    28.8457631649    29.1790964983    30.3457631649    32.1790964983    33.5124298316    31.3457631649    27.5124298316    23.8457631649    21.1790964983    19.1790964983    16.5124298316    15.8457631649    16.1790964983    18.1790964983    21.6790964983    26.0124298316    30.3457631649    32.5124298316    32.8457631649    34.1790964983    35.3457631649    35.6790964983    24.5124298316     5.6790964983    -2.8209035017     0.8457631649     7.5124298316    13.1790964983    20.0124298316    30.8457631649    37.0124298316    39.0124298316    40.6790964983    41.3457631649    40.5124298316    35.3457631649    28.6790964983    25.5124298316    42.6790964983    66.0124298316    76.6790964983    76.8457631649    73.5124298316    69.0124298316    58.6790964983    34.1790964983     3.0124298316   -23.9875701684   -34.3209035017   -32.8209035017   -29.4875701684   -21.4875701684    -9.3209035017    -5.6542368351   -42.1542368351   -78.9875701684  -102.8209035017  -121.9875701684  -128.3209035017  -124.4875701684  -130.6542368351  -159.6542368351  -183.4875701684  -214.6542368351  -240.4875701684  -238.6542368351  -238.3209035017  -262.3209035017  -319.3209035017  -394.8209035017  -437.3209035017  -464.6542368351  -511.4875701684  -637.9875701684  -731.6542368351  -723.1542368351  -785.1542368351  -913.3209035017 -1006.8209035017 -1007.4875701684  -925.3209035017  -842.3209035017  -781.1542368351  -770.3209035017  -781.9875701684  -639.6542368351  -346.6542368351  -139.3209035017   -83.3209035017    79.8457631649   303.1790964983   349.3457631649   387.1790964983   621.6790964983   962.0124298316  1231.1790964983  1350.1790964983  1340.5124298316  1349.0124298316  1392.6790964983  1445.6790964983  1284.8457631649   829.5124298316   352.6790964983    39.5124298316  -119.3209035017  -278.4875701684  -247.9875701684   -35.9875701684   111.8457631649   123.1790964983   103.5124298316   110.3457631649   197.3457631649   278.1790964983   381.1790964983   508.0124298316   702.0124298316  1020.3457631649  1413.1790964983  1787.0124298316  1968.6790964983  2040.0124298316  1985.0124298316  1841.6790964983  1665.0124298316  1485.8457631649  1317.6790964983  1165.1790964983  1021.0124298316   888.1790964983   775.5124298316   667.5124298316   577.8457631649   520.0124298316   484.1790964983   457.1790964983   422.1790964983   385.6790964983   336.0124298316   270.8457631649   235.8457631649   223.5124298316   225.6790964983   240.6790964983   261.0124298316   283.1790964983   299.3457631649   324.6790964983   344.3457631649   344.8457631649   338.1790964983   332.6790964983   335.5124298316   341.5124298316   362.0124298316   396.8457631649   399.8457631649   381.8457631649   352.8457631649   314.0124298316   273.8457631649   230.0124298316   186.1790964983   145.8457631649   110.0124298316    79.6790964983    53.0124298316    34.0124298316    22.3457631649    15.3457631649    10.1790964983     5.5124298316     2.3457631649     2.1790964983     3.6790964983     3.5124298316     0.8457631649    -1.9875701684    -2.9875701684    -2.4875701684    -1.8209035017    -1.9875701684    -3.9875701684    -9.8209035017   -19.3209035017   -34.1542368351   -52.3209035017   -69.8209035017   -85.6542368351  -100.8209035017  -116.8209035017  -130.3209035017  -140.4875701684  -146.3209035017  -152.9875701684  -159.4875701684  -165.1542368351  -168.3209035017  -167.4875701684  -163.4875701684  -159.3209035017  -152.8209035017  -142.6542368351  -132.4875701684  -123.1542368351  -116.4875701684  -110.8209035017  -106.4875701684  -102.8209035017   -99.6542368351   -95.4875701684   -90.8209035017   -86.8209035017   -83.1542368351   -80.3209035017   -78.1542368351   -77.3209035017   -79.1542368351   -81.4875701684   -83.8209035017   -87.6542368351   -90.9875701684   -92.8209035017   -92.9875701684   -92.4875701684   -94.8209035017   -98.4875701684  -102.6542368351  -105.6542368351  -108.8209035017  -111.9875701684  -116.4875701684  -120.9875701684  -121.1542368351  -121.3209035017  -122.6542368351  -124.8209035017  -126.8209035017  -126.9875701684  -128.1542368351  -128.8209035017  -127.8209035017  -126.1542368351  -123.4875701684  -120.3209035017  -117.1542368351  -114.8209035017  -112.4875701684  -108.1542368351  -104.9875701684  -102.4875701684   -98.6542368351   -93.1542368351   -87.4875701684   -82.1542368351   -77.6542368351   -74.9875701684   -73.1542368351   -70.4875701684   -68.8209035017   -68.4875701684   -69.4875701684   -69.8209035017   -68.9875701684   -69.4875701684   -68.8209035017   -69.1542368351   -69.1542368351   -68.4875701684   -66.9875701684   -66.3209035017   -65.3209035017   -63.6542368351   -60.8209035017   -58.6542368351   -56.9875701684   -56.8209035017   -57.1542368351   -56.9875701684   -58.1542368351   -58.9875701684   -61.6542368351   -62.9875701684   -62.6542368351   -62.4875701684   -62.9875701684   -64.3209035017   -65.3209035017   -65.3209035017   -64.6542368351   -64.6542368351   -63.8209035017   -62.3209035017   -58.9875701684   -55.3209035017   -49.8209035017   -44.6542368351   -38.4875701684   -31.9875701684   -28.4875701684   -25.1542368351   -21.8209035017   -18.4875701684   -13.9875701684   -11.1542368351   -10.9875701684    -9.9875701684    -8.6542368351    -6.3209035017    -5.9875701684    -7.3209035017    -9.8209035017   -11.6542368351   -12.8209035017   -12.8209035017   -12.1542368351   -12.6542368351   -12.3209035017   -10.4875701684    -9.3209035017    -7.3209035017    -5.1542368351    -3.6542368351    -3.4875701684    -4.1542368351    -4.6542368351    -4.9875701684    -5.4875701684    -4.8209035017    -5.6542368351    -8.9875701684   -11.6542368351   -12.3209035017   -12.4875701684   -13.4875701684   -15.1542368351   -18.3209035017   -21.3209035017   -23.6542368351   -23.1542368351   -21.3209035017   -18.3209035017   -15.1542368351   -10.8209035017    -7.3209035017    -3.8209035017     1.0124298316     5.8457631649     9.0124298316    11.1790964983    13.8457631649    16.8457631649    22.3457631649    29.1790964983    35.3457631649    39.1790964983    42.0124298316    44.5124298316    46.3457631649    47.5124298316    48.5124298316    48.6790964983    48.6790964983    48.6790964983    49.3457631649    49.1790964983    48.6790964983    47.6790964983    46.0124298316    44.1790964983    43.3457631649    42.8457631649    41.5124298316    41.0124298316    42.8457631649    44.6790964983    45.8457631649    47.6790964983    49.3457631649    50.0124298316    49.3457631649    48.1790964983    46.8457631649    46.1790964983    44.8457631649    43.5124298316    41.0124298316    39.0124298316    38.5124298316    35.7095696338    31.7400427693    27.4371825715    23.4676557070    19.6647955092    15.6952686447    12.3924084469    10.2562149158 
    4.5595142781     3.3624232720     1.1653322658    -0.8650920737    -1.5621830798    -1.2592740859     0.3769682413     2.0132105685     0.3465439018    -3.6534560982    -6.3201227649    -8.6534560982   -11.3201227649   -12.9867894315   -12.6534560982   -12.1534560982   -11.6534560982   -11.4867894315   -10.9867894315   -11.1534560982   -12.8201227649   -14.8201227649   -18.9867894315   -23.3201227649   -26.4867894315   -27.1534560982   -27.6534560982   -29.3201227649   -32.1534560982   -34.8201227649   -37.3201227649   -38.6534560982   -40.3201227649   -40.4867894315   -38.1534560982   -35.3201227649   -33.3201227649   -33.6534560982   -34.3201227649   -34.3201227649   -33.1534560982   -31.6534560982   -30.3201227649   -29.1534560982   -26.1534560982   -20.8201227649   -15.6534560982   -11.6534560982    -9.1534560982    -7.6534560982    -7.6534560982    -7.4867894315    -7.6534560982    -6.1534560982    -3.6534560982    -0.8201227649     1.1798772351     1.8465439018     2.3465439018     2.8465439018     2.1798772351    -0.6534560982    -2.3201227649    -3.9867894315    -6.9867894315    -8.4867894315    -8.9867894315   -10.4867894315   -11.3201227649   -11.1534560982   -12.1534560982   -13.6534560982   -15.4867894315   -16.6534560982   -17.9867894315   -18.1534560982   -18.9867894315   -20.8201227649   -25.1534560982   -28.6534560982   -28.9867894315   -30.1534560982   -32.8201227649   -36.3201227649   -38.9867894315   -41.8201227649   -44.3201227649   -48.4867894315   -52.9867894315   -53.8201227649   -51.9867894315   -49.1534560982   -45.6534560982   -42.3201227649   -39.4867894315   -36.9867894315   -35.6534560982   -35.4867894315   -35.6534560982   -34.8201227649   -33.9867894315   -32.1534560982   -25.3201227649   -18.4867894315    -9.1534560982    -3.3201227649    -0.1534560982     0.0132105685    -3.4867894315    -8.9867894315   -16.9867894315   -29.6534560982   -37.8201227649   -39.3201227649   -33.9867894315   -29.3201227649   -26.9867894315   -28.8201227649   -39.9867894315   -51.3201227649   -70.3201227649  -108.8201227649  -143.8201227649  -158.1534560982  -155.8201227649  -136.6534560982  -117.8201227649  -105.3201227649   -99.9867894315   -93.4867894315   -82.1534560982   -60.1534560982   -39.6534560982   -15.4867894315    18.5132105685    48.3465439018    72.8465439018   100.6798772351   106.8465439018    88.0132105685    48.5132105685     2.6798772351   -30.3201227649   -39.1534560982   -40.6534560982   -61.8201227649  -120.1534560982  -197.1534560982  -268.8201227649  -344.8201227649  -453.4867894315  -561.4867894315  -620.6534560982  -638.9867894315  -697.4867894315  -822.3201227649  -865.4867894315  -782.4867894315  -654.3201227649  -568.4867894315  -596.9867894315  -670.8201227649  -645.4867894315  -570.6534560982  -520.4867894315  -507.4867894315  -516.3201227649  -612.4867894315  -696.9867894315  -721.6534560982  -663.8201227649  -527.3201227649  -385.9867894315  -320.1534560982  -402.3201227649  -458.9867894315  -230.1534560982   128.8465439018   339.8465439018   472.1798772351   583.5132105685   762.5132105685   970.5132105685  1205.5132105685  1271.1798772351  1168.8465439018   954.1798772351   645.3465439018   239.1798772351   -16.1534560982    16.3465439018   186.8465439018   232.0132105685   205.1798772351   222.5132105685   245.3465439018   290.8465439018   300.6798772351   323.5132105685   400.3465439018   583.1798772351   831.5132105685  1151.0132105685  1540.1798772351  1929.3465439018  2090.8465439018  2054.1798772351  1887.1798772351  1672.5132105685  1459.6798772351  1280.1798772351  1134.5132105685  1008.6798772351   887.5132105685   765.3465439018   651.3465439018   558.0132105685   482.1798772351   402.0132105685   311.0132105685   263.8465439018   237.1798772351   239.6798772351   249.0132105685   255.0132105685   279.1798772351   313.5132105685   349.8465439018   380.0132105685   403.1798772351   425.6798772351   443.1798772351   446.8465439018   444.1798772351   458.5132105685   498.1798772351   507.6798772351   510.3465439018   484.6798772351   446.3465439018   408.0132105685   351.8465439018   285.5132105685   219.8465439018   163.6798772351   121.1798772351    90.3465439018    68.0132105685    52.0132105685    41.8465439018    36.5132105685    33.1798772351    33.0132105685    35.1798772351    39.0132105685    42.5132105685    45.5132105685    44.6798772351    39.8465439018    29.0132105685    15.5132105685    -3.6534560982   -29.9867894315   -59.1534560982   -88.6534560982  -116.1534560982  -141.9867894315  -164.1534560982  -181.8201227649  -193.6534560982  -200.1534560982  -201.9867894315  -204.8201227649  -207.8201227649  -210.3201227649  -212.1534560982  -212.6534560982  -209.1534560982  -200.8201227649  -188.9867894315  -174.9867894315  -161.6534560982  -150.6534560982  -140.8201227649  -134.4867894315  -130.4867894315  -131.1534560982  -136.1534560982  -140.3201227649  -140.9867894315  -140.1534560982  -137.1534560982  -135.4867894315  -134.4867894315  -134.1534560982  -135.1534560982  -138.6534560982  -139.9867894315  -140.3201227649  -142.3201227649  -143.1534560982  -144.8201227649  -145.4867894315  -145.4867894315  -143.8201227649  -142.4867894315  -140.9867894315  -139.8201227649  -138.3201227649  -136.6534560982  -133.9867894315  -132.1534560982  -130.1534560982  -132.6534560982  -135.6534560982  -138.1534560982  -141.4867894315  -144.4867894315  -146.4867894315  -147.1534560982  -146.6534560982  -147.4867894315  -148.6534560982  -149.3201227649  -150.1534560982  -150.9867894315  -152.8201227649  -153.4867894315  -152.8201227649  -147.6534560982  -142.8201227649  -138.6534560982  -132.3201227649  -125.6534560982  -119.8201227649  -113.3201227649  -109.1534560982  -105.4867894315  -102.8201227649  -100.8201227649   -97.1534560982   -93.9867894315   -91.1534560982   -89.6534560982   -87.8201227649   -88.6534560982   -89.6534560982   -89.9867894315   -91.6534560982   -92.6534560982   -90.6534560982   -89.3201227649   -90.1534560982   -90.9867894315   -93.3201227649   -94.4867894315   -95.9867894315   -98.9867894315  -100.4867894315  -100.1534560982   -99.3201227649   -97.8201227649   -95.1534560982   -91.4867894315   -88.1534560982   -85.8201227649   -84.3201227649   -84.1534560982   -80.8201227649   -77.6534560982   -70.9867894315   -65.3201227649   -62.1534560982   -59.9867894315   -57.6534560982   -54.3201227649   -49.8201227649   -46.3201227649   -45.6534560982   -45.6534560982   -45.4867894315   -46.9867894315   -51.3201227649   -53.1534560982   -55.1534560982   -55.1534560982   -56.6534560982   -59.6534560982   -61.1534560982   -59.6534560982   -57.4867894315   -55.9867894315   -56.3201227649   -57.6534560982   -56.6534560982   -54.8201227649   -53.8201227649   -53.1534560982   -53.1534560982   -54.9867894315   -56.8201227649   -59.1534560982   -60.6534560982   -59.8201227649   -57.9867894315   -56.6534560982   -55.4867894315   -56.3201227649   -57.3201227649   -56.8201227649   -56.1534560982   -55.3201227649   -53.3201227649   -48.6534560982   -42.9867894315   -36.8201227649   -30.8201227649   -25.4867894315   -20.1534560982   -14.9867894315   -10.4867894315    -6.4867894315    -4.1534560982    -0.6534560982     2.6798772351     5.5132105685     8.0132105685     8.8465439018     8.5132105685     7.3465439018     7.3465439018     8.3465439018    10.1798772351    11.0132105685     8.5132105685     6.6798772351     5.3465439018     3.5132105685     2.0132105685     1.0132105685     0.5132105685     0.0132105685    -1.3201227649    -2.4867894315    -3.3201227649    -4.8201227649    -7.1534560982   -10.6534560982   -13.8201227649   -15.4867894315   -12.8201227649   -10.4867894315    -9.4867894315    -8.9867894315    -8.8201227649    -7.9867894315    -7.4867894315    -7.9867894315    -9.8201227649    -9.9867894315    -8.8201227649    -6.3201227649    -4.3201227649    -3.4867894315    -3.6534560982    -2.9867894315    -1.8201227649    -1.3201227649    -1.8201227649    -3.3201227649    -3.9867894315    -5.8201227649    -7.8201227649    -7.4563650921    -5.0926074193    -3.7288497465    -3.3650920737    -3.6680010675    -2.8042433947    -0.9404857219     0.7566052842 
   15.2821438118    20.4616412724    23.6411387330    24.6539695269    24.5001336541    22.6796311147    21.0257952419    20.0386260358    18.5386260358    17.2052927025    15.5386260358    14.0386260358    12.2052927025     9.0386260358     6.7052927025     2.5386260358    -2.7947072975    -7.9613739642   -12.6280406308   -16.9613739642   -19.9613739642   -19.7947072975   -17.9613739642   -14.7947072975   -14.2947072975   -14.2947072975   -13.7947072975   -12.6280406308   -13.9613739642   -16.4613739642   -18.4613739642   -20.1280406308   -21.4613739642   -23.4613739642   -24.7947072975   -24.7947072975   -23.9613739642   -24.2947072975   -25.7947072975   -31.2947072975   -34.9613739642   -37.9613739642   -40.1280406308   -43.2947072975   -44.7947072975   -44.2947072975   -43.6280406308   -41.9613739642   -40.9613739642   -41.4613739642   -41.4613739642   -39.6280406308   -38.2947072975   -37.7947072975   -38.7947072975   -39.1280406308   -38.4613739642   -36.1280406308   -33.7947072975   -30.7947072975   -26.9613739642   -23.4613739642   -21.1280406308   -22.1280406308   -25.1280406308   -27.9613739642   -29.9613739642   -31.1280406308   -30.6280406308   -28.7947072975   -27.4613739642   -26.2947072975   -25.4613739642   -25.1280406308   -24.4613739642   -24.7947072975   -24.7947072975   -25.2947072975   -26.7947072975   -26.7947072975   -26.1280406308   -24.7947072975   -23.7947072975   -25.1280406308   -28.7947072975   -33.6280406308   -36.4613739642   -33.9613739642   -29.2947072975   -25.7947072975   -24.7947072975   -24.2947072975   -23.2947072975   -21.2947072975   -21.7947072975   -22.2947072975   -20.4613739642   -17.9613739642   -16.4613739642   -14.7947072975   -15.9613739642   -17.7947072975   -17.2947072975   -20.1280406308   -28.6280406308   -37.4613739642   -40.2947072975   -39.9613739642   -39.4613739642   -40.4613739642   -38.9613739642   -38.1280406308   -37.7947072975   -39.9613739642   -45.1280406308   -48.9613739642   -49.1280406308   -47.4613739642   -53.7947072975   -71.2947072975   -92.1280406308  -108.1280406308  -117.2947072975  -116.6280406308  -123.4613739642  -129.2947072975  -120.4613739642  -100.7947072975   -92.7947072975   -99.4613739642   -98.7947072975   -94.4613739642   -88.9613739642   -79.2947072975   -74.9613739642   -68.7947072975   -45.6280406308   -22.6280406308   -15.9613739642   -21.4613739642   -40.7947072975  -107.2947072975  -190.4613739642  -248.6280406308  -286.1280406308  -349.6280406308  -478.7947072975  -594.4613739642  -664.4613739642  -724.4613739642  -806.6280406308  -899.4613739642  -931.2947072975  -994.1280406308 -1088.6280406308 -1190.6280406308 -1196.4613739642 -1111.4613739642  -962.7947072975  -870.2947072975  -805.7947072975  -633.6280406308  -325.4613739642  -163.6280406308  -109.6280406308   -47.7947072975   -34.9613739642    80.0386260358   187.8719593692   334.8719593692   519.3719593692   701.5386260358   867.8719593692   966.0386260358   947.5386260358   967.5386260358   946.5386260358   887.7052927025   779.5386260358   802.2052927025   896.3719593692   951.0386260358  1058.5386260358  1072.3719593692   967.8719593692   723.3719593692   357.8719593692   -65.2947072975  -435.7947072975  -656.9613739642  -696.1280406308  -650.1280406308  -488.2947072975  -339.4613739642  -229.4613739642  -143.1280406308   -82.6280406308   -16.7947072975    64.8719593692   143.0386260358   258.5386260358   484.3719593692   816.5386260358  1200.8719593692  1456.0386260358  1574.8719593692  1564.3719593692  1446.2052927025  1274.3719593692  1096.2052927025   934.3719593692   792.3719593692   658.5386260358   532.3719593692   410.2052927025   278.2052927025   167.5386260358   110.7052927025    82.0386260358    66.5386260358    41.5386260358    55.8719593692    94.3719593692   147.3719593692   196.8719593692   235.2052927025   265.8719593692   295.2052927025   331.2052927025   366.0386260358   403.8719593692   460.3719593692   508.8719593692   520.8719593692   513.3719593692   503.0386260358   514.2052927025   496.8719593692   456.3719593692   406.2052927025   356.7052927025   313.0386260358   276.0386260358   239.7052927025   202.2052927025   167.5386260358   135.5386260358   110.3719593692    87.3719593692    62.5386260358    41.2052927025    24.7052927025    10.5386260358    -4.4613739642   -19.7947072975   -33.7947072975   -47.2947072975   -64.7947072975   -84.4613739642  -102.9613739642  -119.9613739642  -134.7947072975  -147.9613739642  -162.2947072975  -177.2947072975  -190.2947072975  -201.1280406308  -211.1280406308  -219.1280406308  -226.9613739642  -233.2947072975  -240.6280406308  -246.9613739642  -249.6280406308  -248.1280406308  -245.1280406308  -242.4613739642  -238.9613739642  -233.2947072975  -228.1280406308  -221.6280406308  -216.2947072975  -210.2947072975  -204.2947072975  -200.2947072975  -196.2947072975  -192.9613739642  -190.7947072975  -191.2947072975  -193.7947072975  -200.7947072975  -207.2947072975  -212.1280406308  -218.4613739642  -226.4613739642  -233.2947072975  -239.1280406308  -242.6280406308  -246.7947072975  -251.1280406308  -253.2947072975  -254.6280406308  -252.9613739642  -245.9613739642  -237.7947072975  -230.4613739642  -221.6280406308  -214.6280406308  -209.9613739642  -205.1280406308  -198.9613739642  -193.9613739642  -190.9613739642  -190.6280406308  -192.1280406308  -193.4613739642  -193.4613739642  -191.7947072975  -190.7947072975  -192.9613739642  -195.4613739642  -195.2947072975  -194.1280406308  -193.7947072975  -194.7947072975  -196.4613739642  -196.6280406308  -193.4613739642  -188.1280406308  -180.7947072975  -172.7947072975  -167.7947072975  -164.7947072975  -162.1280406308  -161.9613739642  -163.1280406308  -164.9613739642  -168.9613739642  -174.1280406308  -178.2947072975  -180.1280406308  -178.4613739642  -177.1280406308  -177.6280406308  -179.2947072975  -181.7947072975  -183.1280406308  -182.1280406308  -179.9613739642  -178.7947072975  -175.4613739642  -169.9613739642  -163.6280406308  -156.7947072975  -150.6280406308  -144.4613739642  -138.2947072975  -134.4613739642  -132.9613739642  -133.1280406308  -132.7947072975  -130.6280406308  -128.7947072975  -127.4613739642  -128.2947072975  -128.9613739642  -130.6280406308  -133.1280406308  -133.6280406308  -135.9613739642  -138.2947072975  -140.2947072975  -141.7947072975  -141.6280406308  -140.7947072975  -140.4613739642  -141.1280406308  -144.2947072975  -146.4613739642  -146.9613739642  -146.2947072975  -144.2947072975  -140.7947072975  -138.1280406308  -138.9613739642  -138.4613739642  -137.1280406308  -134.6280406308  -132.1280406308  -131.6280406308  -131.7947072975  -129.7947072975  -127.4613739642  -124.1280406308  -122.4613739642  -121.6280406308  -120.9613739642  -123.1280406308  -126.2947072975  -129.7947072975  -131.1280406308  -131.7947072975  -131.9613739642  -133.6280406308  -136.4613739642  -138.9613739642  -140.6280406308  -144.4613739642  -148.4613739642  -151.9613739642  -154.9613739642  -157.9613739642  -158.9613739642  -157.7947072975  -156.4613739642  -154.1280406308  -152.1280406308  -149.7947072975  -147.2947072975  -143.7947072975  -138.9613739642  -134.2947072975  -128.6280406308  -120.7947072975  -112.2947072975  -103.9613739642   -95.1280406308   -87.6280406308   -82.2947072975   -77.6280406308   -73.9613739642   -70.4613739642   -66.7947072975   -62.9613739642   -60.1280406308   -58.9613739642   -58.2947072975   -55.9613739642   -54.4613739642   -54.7947072975   -55.9613739642   -58.2947072975   -59.9613739642   -59.1280406308   -58.1280406308   -58.4613739642   -56.9613739642   -54.1280406308   -51.2947072975   -48.9613739642   -46.6280406308   -43.6280406308   -41.2947072975   -41.1280406308   -41.9613739642   -42.6280406308   -41.7947072975   -38.7947072975   -35.7947072975   -35.1280406308   -35.7947072975   -35.6280406308   -35.2947072975   -36.1280406308   -37.4613739642   -40.4613739642   -41.2947072975   -41.4613739642   -42.2947072975   -42.7947072975   -41.2947072975   -39.1280406308   -38.1280406308   -36.3075380914   -35.4870355520   -33.6665330126   -30.5126971398   -27.1921946004   -24.8716920609   -22.5511895215   -19.7306869821 
   24.9442662390    26.5491847100    28.4874365143    31.4256883186    33.8639401230    35.8021919273    36.7404437316    38.5120288693    38.8453622026    38.0120288693    35.3453622026    30.3453622026    23.5120288693    17.5120288693    11.5120288693     6.0120288693     1.3453622026    -1.6546377974    -3.9879711307    -5.9879711307    -7.6546377974    -9.9879711307   -11.3213044641   -12.4879711307   -13.9879711307   -15.1546377974   -15.1546377974   -13.9879711307   -12.6546377974    -9.9879711307    -7.8213044641    -5.9879711307    -4.4879711307    -1.6546377974     0.8453622026     1.0120288693    -0.1546377974     0.3453622026     2.5120288693     4.3453622026     6.5120288693     7.8453622026     9.6786955359    10.6786955359    11.0120288693    10.1786955359     8.6786955359     6.1786955359     3.8453622026     1.8453622026    -0.1546377974    -2.6546377974    -5.6546377974    -8.1546377974   -11.3213044641   -13.9879711307   -14.9879711307   -12.8213044641   -10.4879711307    -8.4879711307    -6.8213044641    -5.9879711307    -5.8213044641    -4.3213044641    -0.9879711307     0.8453622026     0.5120288693     2.5120288693     7.6786955359    11.6786955359    13.0120288693    13.0120288693    11.3453622026     9.5120288693     6.0120288693     2.6786955359     0.1786955359    -1.3213044641    -1.9879711307    -2.9879711307    -7.1546377974   -10.4879711307    -9.8213044641    -7.9879711307    -6.4879711307    -8.6546377974   -12.9879711307   -14.1546377974   -11.9879711307    -9.8213044641    -4.9879711307    -0.9879711307     2.3453622026     2.8453622026    -1.8213044641    -5.3213044641    -3.1546377974     0.1786955359     0.3453622026    -2.1546377974    -7.3213044641    -9.9879711307    -7.6546377974    -4.3213044641    -4.8213044641   -14.4879711307   -29.3213044641   -46.3213044641   -62.1546377974   -66.3213044641   -56.3213044641   -41.1546377974   -28.1546377974   -20.1546377974   -16.9879711307   -14.3213044641   -18.1546377974   -21.4879711307   -26.9879711307   -40.4879711307   -50.1546377974   -42.4879711307   -28.6546377974    -9.9879711307     5.1786955359    10.6786955359     9.6786955359     1.8453622026   -15.8213044641   -31.8213044641   -39.1546377974   -45.8213044641   -46.3213044641   -51.9879711307   -63.4879711307   -72.1546377974   -73.4879711307   -59.8213044641   -37.9879711307   -31.6546377974   -60.1546377974  -118.4879711307  -153.9879711307  -155.6546377974  -148.6546377974  -144.3213044641  -144.9879711307  -137.6546377974  -134.6546377974  -138.8213044641  -141.6546377974  -123.4879711307  -130.8213044641  -224.6546377974  -336.1546377974  -391.4879711307  -362.8213044641  -298.3213044641  -288.3213044641  -281.3213044641  -248.9879711307  -219.6546377974  -216.9879711307  -259.3213044641  -347.4879711307  -426.6546377974  -485.4879711307  -520.3213044641  -532.8213044641  -471.8213044641  -430.3213044641  -435.4879711307  -444.3213044641  -373.1546377974  -284.9879711307  -381.3213044641  -605.9879711307  -745.6546377974  -768.1546377974  -655.6546377974  -464.6546377974  -300.8213044641   -60.4879711307    83.8453622026   272.8453622026   519.5120288693   709.1786955359   886.0120288693  1049.6786955359  1079.5120288693  1014.0120288693   966.8453622026   888.8453622026   649.6786955359   445.6786955359   308.5120288693   172.6786955359   173.0120288693   161.8453622026   230.0120288693   245.8453622026   180.0120288693   186.5120288693   200.3453622026   176.6786955359   191.3453622026   297.5120288693   521.8453622026   863.0120288693  1271.6786955359  1538.8453622026  1629.8453622026  1688.5120288693  1641.1786955359  1511.0120288693  1352.3453622026  1199.8453622026  1061.5120288693   933.0120288693   810.6786955359   698.6786955359   595.6786955359   499.1786955359   422.3453622026   354.3453622026   285.0120288693   250.0120288693   234.8453622026   236.5120288693   243.1786955359   253.3453622026   267.5120288693   277.3453622026   283.6786955359   290.3453622026   298.6786955359   300.5120288693   300.8453622026   307.6786955359   308.6786955359   313.6786955359   334.0120288693   336.6786955359   331.3453622026   313.1786955359   291.1786955359   268.3453622026   243.6786955359   218.3453622026   195.0120288693   172.5120288693   151.1786955359   133.1786955359   116.8453622026   101.6786955359    89.3453622026    79.0120288693    68.6786955359    59.6786955359    50.0120288693    38.8453622026    25.8453622026    13.3453622026    -1.1546377974   -18.4879711307   -38.6546377974   -60.9879711307   -82.9879711307  -101.4879711307  -117.6546377974  -133.1546377974  -147.8213044641  -160.4879711307  -170.6546377974  -180.8213044641  -191.4879711307  -200.4879711307  -207.3213044641  -213.4879711307  -217.6546377974  -218.3213044641  -215.8213044641  -210.4879711307  -202.8213044641  -198.1546377974  -195.6546377974  -192.8213044641  -189.6546377974  -185.1546377974  -182.3213044641  -179.9879711307  -177.3213044641  -175.1546377974  -173.4879711307  -173.4879711307  -174.3213044641  -174.4879711307  -173.1546377974  -171.8213044641  -171.9879711307  -171.3213044641  -170.1546377974  -168.8213044641  -167.8213044641  -169.1546377974  -170.8213044641  -172.9879711307  -174.3213044641  -173.4879711307  -172.4879711307  -171.4879711307  -170.8213044641  -172.8213044641  -175.9879711307  -179.4879711307  -182.9879711307  -186.6546377974  -189.9879711307  -192.1546377974  -193.1546377974  -194.1546377974  -193.9879711307  -193.3213044641  -192.9879711307  -192.9879711307  -191.8213044641  -190.1546377974  -189.1546377974  -185.4879711307  -183.9879711307  -183.3213044641  -183.4879711307  -182.1546377974  -179.6546377974  -177.3213044641  -176.3213044641  -177.8213044641  -177.6546377974  -175.1546377974  -171.6546377974  -168.4879711307  -165.6546377974  -162.8213044641  -158.4879711307  -156.3213044641  -152.8213044641  -150.8213044641  -147.3213044641  -144.8213044641  -141.6546377974  -140.3213044641  -138.1546377974  -131.8213044641  -126.9879711307  -125.3213044641  -126.6546377974  -129.4879711307  -133.9879711307  -137.3213044641  -141.1546377974  -145.1546377974  -148.8213044641  -149.3213044641  -150.1546377974  -151.1546377974  -153.1546377974  -155.9879711307  -158.1546377974  -161.1546377974  -164.8213044641  -167.1546377974  -166.8213044641  -165.3213044641  -162.6546377974  -161.1546377974  -159.9879711307  -158.8213044641  -157.8213044641  -156.1546377974  -152.3213044641  -148.3213044641  -145.3213044641  -140.6546377974  -137.3213044641  -133.8213044641  -129.3213044641  -125.9879711307  -123.9879711307  -121.1546377974  -118.4879711307  -115.4879711307  -113.1546377974  -110.6546377974  -107.6546377974  -105.8213044641  -107.4879711307  -108.4879711307  -109.6546377974  -109.4879711307  -108.4879711307  -107.1546377974  -105.6546377974  -103.4879711307  -100.9879711307  -100.1546377974  -100.4879711307  -101.3213044641   -98.9879711307   -96.1546377974   -93.6546377974   -92.9879711307   -92.3213044641   -92.8213044641   -91.6546377974   -91.8213044641   -92.8213044641   -95.4879711307   -98.3213044641  -100.4879711307  -102.4879711307  -103.1546377974  -102.8213044641  -100.6546377974   -98.9879711307   -97.6546377974   -97.1546377974   -95.9879711307   -94.8213044641   -92.4879711307   -91.1546377974   -89.9879711307   -89.4879711307   -87.1546377974   -84.3213044641   -81.6546377974   -78.3213044641   -76.8213044641   -74.4879711307   -72.9879711307   -73.1546377974   -74.4879711307   -75.8213044641   -74.9879711307   -72.3213044641   -70.6546377974   -68.9879711307   -68.4879711307   -67.1546377974   -64.8213044641   -63.6546377974   -63.3213044641   -64.1546377974   -63.6546377974   -62.9879711307   -62.1546377974   -61.1546377974   -59.1546377974   -56.3213044641   -54.9879711307   -56.4879711307   -58.4879711307   -59.9879711307   -59.3213044641   -57.8213044641   -59.1546377974   -60.6546377974   -61.1546377974   -61.8213044641   -61.6546377974   -62.4879711307   -64.9879711307   -69.4879711307   -72.3213044641   -69.7595562684   -66.6978080727   -61.8027265437   -56.2409783480   -51.3458968190   -47.1174819567   -43.5557337610   -39.4939855654 
   23.1943330660    23.6974071104    25.5338144881    26.3702218658    26.7066292435    26.5430366212    26.0461106656    26.5491847100    25.5491847100    22.0491847100    16.7158513766    13.3825180433    11.5491847100     8.3825180433     4.2158513766     2.0491847100     1.3825180433     0.7158513766    -2.2841486234    -5.4508152900    -8.1174819567    -9.7841486234   -10.7841486234   -12.2841486234   -14.2841486234   -16.6174819567   -17.2841486234   -17.9508152900   -19.1174819567   -21.1174819567   -22.1174819567   -24.2841486234   -25.6174819567   -27.1174819567   -28.4508152900   -29.1174819567   -28.9508152900   -27.6174819567   -27.7841486234   -28.1174819567   -28.4508152900   -27.2841486234   -26.6174819567   -24.4508152900   -24.2841486234   -23.6174819567   -22.4508152900   -20.4508152900   -20.1174819567   -21.2841486234   -21.2841486234   -20.7841486234   -21.7841486234   -23.9508152900   -23.6174819567   -23.7841486234   -23.9508152900   -24.1174819567   -26.4508152900   -30.7841486234   -34.4508152900   -36.7841486234   -38.9508152900   -40.9508152900   -43.4508152900   -45.2841486234   -47.4508152900   -49.9508152900   -53.7841486234   -57.9508152900   -63.6174819567   -68.4508152900   -70.9508152900   -70.9508152900   -67.7841486234   -66.1174819567   -65.7841486234   -64.1174819567   -63.2841486234   -63.4508152900   -61.7841486234   -58.2841486234   -54.2841486234   -48.6174819567   -42.1174819567   -37.1174819567   -32.2841486234   -28.1174819567   -26.6174819567   -28.2841486234   -31.4508152900   -31.9508152900   -30.2841486234   -32.1174819567   -33.6174819567   -33.4508152900   -31.9508152900   -30.6174819567   -28.6174819567   -30.6174819567   -30.9508152900   -26.4508152900   -22.7841486234   -22.1174819567   -24.4508152900   -29.6174819567   -30.1174819567   -27.2841486234   -25.2841486234   -24.7841486234   -26.4508152900   -27.2841486234   -28.2841486234   -28.1174819567   -33.9508152900   -39.4508152900   -43.7841486234   -48.7841486234   -48.9508152900   -45.6174819567   -42.2841486234   -41.2841486234   -49.4508152900   -65.6174819567   -75.2841486234   -73.4508152900   -78.6174819567   -90.1174819567   -93.9508152900  -104.1174819567  -113.7841486234  -139.6174819567  -182.7841486234  -225.6174819567  -272.9508152900  -300.6174819567  -312.7841486234  -332.4508152900  -364.4508152900  -365.4508152900  -363.6174819567  -364.4508152900  -357.4508152900  -329.2841486234  -299.9508152900  -272.2841486234  -261.7841486234  -243.2841486234  -226.1174819567  -226.2841486234  -226.7841486234  -227.9508152900  -208.7841486234  -170.9508152900  -142.1174819567  -197.7841486234  -312.2841486234  -400.1174819567  -491.1174819567  -600.1174819567  -673.2841486234  -691.1174819567  -730.2841486234  -846.6174819567  -998.7841486234 -1133.2841486234 -1179.1174819567 -1251.4508152900 -1245.6174819567 -1091.6174819567  -908.2841486234  -695.9508152900  -558.4508152900  -454.7841486234  -272.6174819567   -78.6174819567    75.2158513766   203.2158513766   403.8825180433   697.2158513766  1021.3825180433  1283.5491847100  1394.3825180433  1447.2158513766  1378.5491847100  1058.3825180433   615.8825180433   123.8825180433  -242.6174819567  -505.6174819567  -693.6174819567  -700.2841486234  -594.7841486234  -479.4508152900  -404.2841486234  -359.4508152900  -314.2841486234  -227.4508152900   -94.2841486234    84.5491847100   254.7158513766   506.7158513766   858.5491847100  1273.3825180433  1672.0491847100  1951.3825180433  2068.0491847100  1994.3825180433  1805.5491847100  1585.8825180433  1371.7158513766  1182.0491847100  1014.2158513766   861.3825180433   718.8825180433   596.7158513766   487.7158513766   394.0491847100   321.3825180433   258.0491847100   209.0491847100   174.0491847100   159.7158513766   150.8825180433   152.8825180433   158.0491847100   172.2158513766   186.8825180433   195.0491847100   197.5491847100   201.5491847100   203.0491847100   210.0491847100   215.2158513766   217.5491847100   224.5491847100   228.7158513766   234.3825180433   228.2158513766   209.7158513766   176.7158513766   141.5491847100   107.3825180433    74.0491847100    51.2158513766    37.7158513766    30.0491847100    24.5491847100    18.7158513766    13.3825180433     9.8825180433     5.5491847100     3.8825180433     2.3825180433     4.0491847100     6.7158513766     7.5491847100     4.8825180433    -5.4508152900   -17.4508152900   -36.9508152900   -60.2841486234   -85.4508152900  -114.6174819567  -144.4508152900  -170.6174819567  -192.9508152900  -210.9508152900  -223.9508152900  -233.6174819567  -240.7841486234  -244.9508152900  -245.7841486234  -245.4508152900  -243.2841486234  -240.1174819567  -234.2841486234  -226.6174819567  -219.6174819567  -210.6174819567  -198.9508152900  -188.9508152900  -182.1174819567  -177.6174819567  -176.9508152900  -176.4508152900  -175.2841486234  -173.1174819567  -172.6174819567  -174.1174819567  -174.9508152900  -175.6174819567  -176.2841486234  -177.7841486234  -178.1174819567  -176.6174819567  -175.7841486234  -173.9508152900  -174.2841486234  -174.4508152900  -173.9508152900  -174.7841486234  -178.4508152900  -182.4508152900  -186.1174819567  -190.2841486234  -194.9508152900  -199.1174819567  -203.1174819567  -205.6174819567  -208.4508152900  -210.9508152900  -212.1174819567  -212.4508152900  -211.7841486234  -213.4508152900  -216.4508152900  -218.9508152900  -220.7841486234  -222.9508152900  -224.6174819567  -224.7841486234  -223.9508152900  -222.6174819567  -219.9508152900  -218.1174819567  -216.4508152900  -215.2841486234  -214.4508152900  -215.1174819567  -216.2841486234  -215.4508152900  -211.7841486234  -206.2841486234  -201.1174819567  -196.2841486234  -191.9508152900  -187.2841486234  -182.2841486234  -178.6174819567  -176.7841486234  -173.9508152900  -168.4508152900  -164.6174819567  -162.7841486234  -161.2841486234  -159.2841486234  -157.1174819567  -156.4508152900  -160.1174819567  -163.9508152900  -166.4508152900  -167.1174819567  -166.9508152900  -167.4508152900  -167.6174819567  -166.7841486234  -165.9508152900  -167.6174819567  -168.4508152900  -168.1174819567  -168.4508152900  -168.2841486234  -167.9508152900  -167.7841486234  -167.1174819567  -164.2841486234  -163.2841486234  -164.2841486234  -168.2841486234  -174.1174819567  -178.7841486234  -182.2841486234  -185.9508152900  -188.7841486234  -189.1174819567  -188.2841486234  -186.4508152900  -184.7841486234  -183.2841486234  -182.1174819567  -179.1174819567  -176.7841486234  -173.4508152900  -171.4508152900  -168.1174819567  -161.9508152900  -155.4508152900  -147.9508152900  -141.6174819567  -134.6174819567  -128.7841486234  -124.2841486234  -121.4508152900  -120.7841486234  -120.2841486234  -119.2841486234  -117.7841486234  -117.1174819567  -116.6174819567  -115.4508152900  -112.7841486234  -109.9508152900  -108.4508152900  -111.1174819567  -111.9508152900  -111.2841486234  -111.1174819567  -109.6174819567  -107.9508152900  -105.4508152900  -105.1174819567  -104.9508152900  -105.6174819567  -104.1174819567  -101.9508152900   -98.9508152900   -94.4508152900   -93.4508152900   -94.6174819567   -95.4508152900   -94.4508152900   -93.2841486234   -93.4508152900   -95.6174819567   -98.1174819567  -100.1174819567   -99.1174819567   -97.9508152900   -97.6174819567   -98.7841486234   -99.2841486234   -99.6174819567  -103.1174819567  -104.9508152900  -106.6174819567  -106.4508152900  -107.9508152900  -111.2841486234  -113.4508152900  -113.9508152900  -111.4508152900  -109.1174819567  -108.6174819567  -109.4508152900  -108.4508152900  -107.2841486234  -105.7841486234  -102.9508152900   -99.4508152900   -97.9508152900   -95.1174819567   -92.2841486234   -91.6174819567   -91.2841486234   -89.9508152900   -90.1174819567   -91.4508152900   -90.1174819567   -87.4508152900   -84.4508152900   -82.4508152900   -80.6174819567   -78.7841486234   -78.7841486234   -78.9508152900   -76.4508152900   -73.4508152900   -70.9508152900   -68.4508152900   -67.4508152900   -66.9508152900   -64.7841486234   -58.7872226677   -55.1236300454   -51.9600374231   -47.9631114675   -43.9661855119   -39.8025928896   -37.1390002673   -33.9754076450 
   32.3561151079    34.4512390088    37.3796962430    40.4748201439    42.2366107114    43.1650679457    44.2601918465    46.1886490807    43.8553157474    42.3553157474    40.5219824141    37.8553157474    34.8553157474    33.8553157474    33.3553157474    32.5219824141    31.0219824141    29.1886490807    27.3553157474    25.3553157474    25.0219824141    24.3553157474    23.8553157474    23.8553157474    23.8553157474    23.8553157474    21.0219824141    20.0219824141    19.5219824141    20.0219824141    20.8553157474    21.8553157474    22.0219824141    22.5219824141    22.6886490807    22.8553157474    21.1886490807    21.0219824141    20.8553157474    19.0219824141    16.6886490807    14.5219824141    14.3553157474    14.3553157474    16.0219824141    16.0219824141    13.5219824141     9.6886490807     7.3553157474     5.6886490807     4.3553157474     4.0219824141     4.8553157474     5.5219824141     6.6886490807     9.3553157474    10.3553157474    10.6886490807    11.3553157474    10.3553157474     6.6886490807     3.5219824141     1.8553157474     2.0219824141     4.0219824141     6.5219824141     7.3553157474     6.0219824141     4.3553157474     3.8553157474     2.5219824141    -0.4780175859    -1.4780175859    -1.3113509193     0.0219824141     3.0219824141     6.5219824141     8.6886490807    10.3553157474    14.0219824141    16.3553157474    19.1886490807    22.1886490807    24.3553157474    26.6886490807    28.8553157474    29.5219824141    29.3553157474    25.0219824141    20.5219824141    20.1886490807    20.6886490807    23.1886490807    27.1886490807    30.8553157474    31.3553157474    31.6886490807    29.3553157474    28.8553157474    30.6886490807    32.5219824141    31.1886490807    28.5219824141    25.8553157474    30.5219824141    36.0219824141    35.5219824141    33.6886490807    27.6886490807    14.8553157474    -3.1446842526   -17.8113509193   -26.8113509193   -27.1446842526   -24.3113509193   -23.1446842526   -32.6446842526   -52.4780175859   -71.4780175859   -91.1446842526  -107.8113509193  -116.1446842526  -110.3113509193  -105.9780175859  -100.8113509193   -81.3113509193   -56.4780175859   -45.6446842526   -42.3113509193   -40.1446842526   -38.1446842526   -35.9780175859   -33.1446842526   -27.9780175859   -21.3113509193   -20.1446842526   -42.9780175859   -73.4780175859  -122.8113509193  -172.8113509193  -180.8113509193  -175.1446842526  -176.9780175859  -186.8113509193  -212.9780175859  -255.4780175859  -291.4780175859  -305.4780175859  -278.6446842526  -245.4780175859  -235.1446842526  -231.3113509193  -254.9780175859  -337.9780175859  -444.1446842526  -523.3113509193  -616.8113509193  -685.4780175859  -682.9780175859  -602.8113509193  -616.3113509193  -770.9780175859  -868.4780175859  -752.8113509193  -591.6446842526  -505.8113509193  -491.8113509193  -431.6446842526  -413.8113509193  -299.9780175859   -75.3113509193   152.8553157474   314.1886490807   501.6886490807   706.1886490807   811.1886490807   877.8553157474  1069.8553157474  1155.8553157474   996.6886490807   823.0219824141   804.6886490807   885.8553157474   920.3553157474   957.6886490807   790.1886490807   420.3553157474    10.3553157474  -239.6446842526  -497.9780175859  -696.6446842526  -747.1446842526  -607.3113509193  -439.1446842526  -246.6446842526   -57.9780175859    59.6886490807    93.1886490807   116.0219824141   146.8553157474   247.0219824141   490.8553157474   837.5219824141  1183.6886490807  1408.3553157474  1565.0219824141  1581.1886490807  1490.0219824141  1352.5219824141  1205.0219824141  1068.1886490807   942.3553157474   820.6886490807   702.6886490807   601.3553157474   506.0219824141   412.5219824141   324.1886490807   234.0219824141   155.6886490807   120.6886490807    83.3553157474    67.3553157474    73.0219824141    94.0219824141   121.6886490807   147.5219824141   168.8553157474   187.0219824141   203.3553157474   203.3553157474   197.6886490807   202.5219824141   221.8553157474   258.5219824141   295.6886490807   294.6886490807   303.0219824141   295.1886490807   269.8553157474   236.8553157474   206.0219824141   179.3553157474   161.3553157474   152.0219824141   149.0219824141   151.8553157474   159.1886490807   167.0219824141   177.5219824141   188.3553157474   194.0219824141   193.5219824141   188.1886490807   175.3553157474   157.3553157474   136.3553157474   111.3553157474    85.8553157474    60.1886490807    35.8553157474    11.1886490807   -13.8113509193   -36.6446842526   -56.9780175859   -77.4780175859   -95.8113509193  -110.9780175859  -124.4780175859  -134.4780175859  -140.1446842526  -144.6446842526  -149.6446842526  -151.3113509193  -151.8113509193  -152.3113509193  -154.6446842526  -157.4780175859  -160.1446842526  -163.6446842526  -166.9780175859  -168.9780175859  -170.4780175859  -168.3113509193  -162.4780175859  -158.6446842526  -156.4780175859  -154.8113509193  -152.4780175859  -149.8113509193  -146.6446842526  -143.1446842526  -138.4780175859  -133.3113509193  -127.1446842526  -120.8113509193  -117.6446842526  -116.1446842526  -115.4780175859  -119.3113509193  -126.8113509193  -134.6446842526  -140.3113509193  -143.3113509193  -144.9780175859  -147.1446842526  -149.9780175859  -152.9780175859  -154.4780175859  -155.9780175859  -157.9780175859  -160.9780175859  -161.9780175859  -161.1446842526  -159.4780175859  -154.6446842526  -149.6446842526  -145.8113509193  -142.3113509193  -139.4780175859  -137.3113509193  -136.8113509193  -135.9780175859  -134.3113509193  -132.6446842526  -129.9780175859  -128.1446842526  -125.9780175859  -123.3113509193  -122.1446842526  -122.1446842526  -122.6446842526  -120.1446842526  -114.3113509193  -109.3113509193  -106.4780175859  -104.9780175859  -104.9780175859  -103.9780175859  -100.6446842526   -99.8113509193   -99.8113509193  -101.8113509193  -102.9780175859  -103.9780175859  -103.9780175859  -104.8113509193  -106.3113509193  -108.1446842526  -112.6446842526  -116.9780175859  -120.4780175859  -122.4780175859  -120.3113509193  -117.3113509193  -117.9780175859  -115.8113509193  -114.9780175859  -111.8113509193  -107.8113509193  -103.1446842526   -98.8113509193   -93.4780175859   -88.6446842526   -83.6446842526   -78.1446842526   -73.9780175859   -70.3113509193   -66.6446842526   -62.9780175859   -60.8113509193   -57.9780175859   -59.1446842526   -58.9780175859   -57.4780175859   -57.4780175859   -58.4780175859   -59.3113509193   -60.8113509193   -61.3113509193   -63.4780175859   -65.3113509193   -65.8113509193   -65.1446842526   -65.1446842526   -67.6446842526   -70.1446842526   -72.1446842526   -71.6446842526   -69.6446842526   -67.6446842526   -64.8113509193   -64.8113509193   -65.3113509193   -65.8113509193   -68.9780175859   -70.8113509193   -71.1446842526   -73.4780175859   -78.1446842526   -77.6446842526   -74.3113509193   -69.4780175859   -64.4780175859   -60.1446842526   -57.6446842526   -56.8113509193   -56.4780175859   -51.4780175859   -45.4780175859   -38.9780175859   -31.3113509193   -25.3113509193   -19.3113509193   -12.1446842526    -3.1446842526    -0.6446842526     0.1886490807    -0.6446842526    -2.6446842526    -5.9780175859    -9.4780175859   -11.1446842526   -11.4780175859   -11.9780175859   -12.9780175859   -14.9780175859   -17.3113509193   -17.6446842526   -18.1446842526   -19.9780175859   -22.3113509193   -21.9780175859   -18.3113509193   -12.9780175859    -7.4780175859    -1.8113509193     3.1886490807     7.3553157474    11.0219824141    12.3553157474    12.3553157474    12.8553157474    12.8553157474    10.8553157474     9.0219824141     9.5219824141    10.6886490807    11.1886490807     9.6886490807     7.1886490807     3.8553157474     0.0219824141    -2.8113509193    -5.6446842526    -8.9780175859   -12.9780175859   -16.1446842526   -14.9780175859   -10.8113509193    -7.1446842526    -5.4780175859    -3.3113509193    -1.3113509193    -0.8113509193    -1.8113509193    -3.9780175859    -4.3113509193    -2.3113509193    -1.1446842526    -1.3113509193    -0.9780175859     0.0219824141     2.4268585132     1.1650679457    -1.2633892886    -2.3585131894    -2.6203037570    -3.5487609912    -4.3105515587    -3.5723421263 
  -13.1929543635   -15.4366159594   -18.3469442220   -21.0906058180   -25.0009340806   -30.9112623432   -37.3215906058   -44.0652522018   -45.7319188684   -47.3985855351   -50.3985855351   -54.0652522018   -59.3985855351   -63.5652522018   -66.3985855351   -68.8985855351   -71.2319188684   -72.7319188684   -74.7319188684   -77.5652522018   -79.3985855351   -78.8985855351   -76.7319188684   -74.7319188684   -75.7319188684   -77.5652522018   -78.0652522018   -77.0652522018   -74.3985855351   -74.2319188684   -75.3985855351   -77.3985855351   -78.5652522018   -80.8985855351   -83.8985855351   -85.8985855351   -88.0652522018   -88.8985855351   -89.2319188684   -89.3985855351   -87.5652522018   -85.3985855351   -85.2319188684   -84.7319188684   -85.7319188684   -86.2319188684   -85.8985855351   -82.8985855351   -80.3985855351   -77.3985855351   -71.3985855351   -65.5652522018   -58.5652522018   -54.0652522018   -51.5652522018   -51.7319188684   -51.8985855351   -51.5652522018   -49.8985855351   -48.8985855351   -46.8985855351   -44.8985855351   -45.0652522018   -45.0652522018   -46.2319188684   -48.8985855351   -53.0652522018   -56.2319188684   -60.8985855351   -64.3985855351   -66.8985855351   -65.5652522018   -63.7319188684   -63.0652522018   -63.0652522018   -61.8985855351   -60.8985855351   -63.0652522018   -54.3985855351   -48.8985855351   -47.2319188684   -43.5652522018   -41.3985855351   -43.2319188684   -45.8985855351   -46.5652522018   -46.8985855351   -50.3985855351   -55.2319188684   -56.3985855351   -55.5652522018   -56.3985855351   -59.2319188684   -58.0652522018   -65.2319188684   -69.8985855351   -69.7319188684   -69.0652522018   -64.8985855351   -57.8985855351   -50.8985855351   -47.2319188684   -45.0652522018   -42.2319188684   -39.0652522018   -38.3985855351   -39.7319188684   -43.2319188684   -46.8985855351   -55.5652522018   -64.5652522018   -69.3985855351   -70.8985855351   -78.0652522018   -90.7319188684  -105.5652522018  -124.5652522018  -143.7319188684  -150.8985855351  -147.8985855351  -141.5652522018  -131.5652522018  -123.7319188684  -116.2319188684  -112.5652522018  -111.0652522018  -106.3985855351  -103.2319188684  -105.5652522018  -111.7319188684  -120.3985855351  -113.2319188684   -95.7319188684   -70.0652522018   -68.5652522018   -92.3985855351  -121.8985855351  -146.8985855351  -159.7319188684  -181.2319188684  -202.2319188684  -203.7319188684  -198.5652522018  -200.0652522018  -204.3985855351  -220.2319188684  -225.7319188684  -251.2319188684  -265.8985855351  -274.0652522018  -264.3985855351  -276.2319188684  -318.5652522018  -364.2319188684  -397.7319188684  -422.8985855351  -497.7319188684  -594.2319188684  -641.7319188684  -685.2319188684  -749.7319188684  -758.8985855351  -719.5652522018  -743.8985855351  -795.5652522018  -820.7319188684  -925.5652522018 -1009.7319188684 -1061.3985855351  -977.2319188684  -803.8985855351  -641.3985855351  -384.7319188684  -192.3985855351   -79.7319188684     5.2680811316   104.2680811316   146.7680811316   142.9347477982   354.6014144649   605.9347477982   740.4347477982   975.7680811316  1208.7680811316  1368.4347477982  1266.7680811316   905.7680811316   460.1014144649   -23.7319188684  -297.0652522018  -439.7319188684  -432.7319188684  -328.7319188684  -168.8985855351   -14.3985855351   -15.3985855351   -53.3985855351   -22.8985855351   -28.7319188684   -29.3985855351    26.6014144649   187.2680811316   481.7680811316   856.2680811316  1209.4347477982  1408.2680811316  1492.2680811316  1459.7680811316  1343.6014144649  1193.1014144649  1047.2680811316   915.1014144649   789.9347477982   667.1014144649   545.1014144649   442.4347477982   340.9347477982   241.2680811316   145.7680811316    59.7680811316    33.1014144649    55.2680811316    82.7680811316   106.6014144649   141.4347477982   178.4347477982   209.9347477982   236.2680811316   255.9347477982   273.7680811316   293.7680811316   310.1014144649   338.9347477982   381.1014144649   429.2680811316   483.2680811316   498.4347477982   481.4347477982   461.2680811316   436.2680811316   398.1014144649   357.2680811316   315.9347477982   274.6014144649   240.9347477982   211.1014144649   185.1014144649   157.1014144649   131.7680811316   103.9347477982    86.1014144649    74.2680811316    65.4347477982    58.1014144649    53.7680811316    52.1014144649    48.4347477982    44.7680811316    40.6014144649    36.7680811316    32.7680811316    32.4347477982    33.9347477982    37.2680811316    37.1014144649    37.6014144649    31.7680811316    21.9347477982     7.7680811316   -10.5652522018   -33.5652522018   -59.5652522018   -82.0652522018  -103.0652522018  -123.2319188684  -141.8985855351  -155.8985855351  -168.8985855351  -178.3985855351  -188.3985855351  -192.8985855351  -195.2319188684  -194.8985855351  -192.8985855351  -190.7319188684  -186.7319188684  -177.8985855351  -164.8985855351  -153.2319188684  -142.0652522018  -131.8985855351  -122.7319188684  -117.0652522018  -113.2319188684  -112.7319188684  -114.2319188684  -117.2319188684  -120.8985855351  -126.2319188684  -132.5652522018  -136.3985855351  -139.2319188684  -142.7319188684  -150.8985855351  -159.2319188684  -166.7319188684  -173.3985855351  -178.2319188684  -183.7319188684  -190.0652522018  -195.8985855351  -200.8985855351  -206.0652522018  -209.8985855351  -213.5652522018  -218.5652522018  -225.8985855351  -232.3985855351  -239.0652522018  -241.7319188684  -242.0652522018  -242.5652522018  -240.5652522018  -239.8985855351  -238.3985855351  -236.0652522018  -231.3985855351  -225.8985855351  -220.3985855351  -215.8985855351  -212.2319188684  -205.7319188684  -197.5652522018  -190.0652522018  -182.7319188684  -176.5652522018  -171.2319188684  -167.8985855351  -166.3985855351  -165.5652522018  -165.5652522018  -165.0652522018  -166.2319188684  -167.7319188684  -169.0652522018  -169.7319188684  -169.5652522018  -169.0652522018  -169.3985855351  -170.7319188684  -174.2319188684  -176.8985855351  -179.5652522018  -181.2319188684  -181.2319188684  -179.7319188684  -178.7319188684  -176.3985855351  -172.8985855351  -168.2319188684  -163.5652522018  -160.7319188684  -158.7319188684  -159.2319188684  -160.7319188684  -163.0652522018  -162.7319188684  -161.3985855351  -159.3985855351  -156.5652522018  -155.0652522018  -153.2319188684  -148.2319188684  -144.7319188684  -142.3985855351  -141.7319188684  -140.8985855351  -139.2319188684  -137.3985855351  -133.2319188684  -128.8985855351  -123.2319188684  -117.2319188684  -112.2319188684  -108.2319188684  -105.2319188684  -103.2319188684  -102.3985855351  -103.2319188684  -104.2319188684  -104.8985855351  -105.5652522018  -105.0652522018  -104.7319188684  -102.8985855351  -101.8985855351  -100.3985855351   -99.2319188684   -99.3985855351   -99.5652522018   -99.5652522018   -99.2319188684   -97.3985855351   -94.8985855351   -95.5652522018   -95.3985855351   -94.5652522018   -92.0652522018   -91.2319188684   -89.2319188684   -87.5652522018   -85.3985855351   -81.7319188684   -78.7319188684   -75.5652522018   -73.8985855351   -73.2319188684   -72.5652522018   -72.8985855351   -74.7319188684   -74.0652522018   -73.3985855351   -71.2319188684   -68.0652522018   -64.7319188684   -64.0652522018   -64.3985855351   -63.3985855351   -61.8985855351   -61.0652522018   -60.3985855351   -60.2319188684   -58.8985855351   -58.7319188684   -59.2319188684   -58.5652522018   -57.2319188684   -54.0652522018   -53.3985855351   -56.0652522018   -57.7319188684   -56.3985855351   -54.3985855351   -55.2319188684   -58.0652522018   -61.5652522018   -65.8985855351   -68.7319188684   -70.8985855351   -73.5652522018   -75.5652522018   -76.3985855351   -77.5652522018   -79.7319188684   -81.7319188684   -82.7319188684   -84.2319188684   -85.7319188684   -87.0652522018   -88.8985855351   -90.7319188684   -90.0652522018   -85.8985855351   -82.0652522018   -78.8985855351   -75.7319188684   -72.7319188684   -70.2319188684   -67.0652522018   -65.0652522018   -61.8985855351   -57.8985855351   -54.0652522018   -49.8215906058   -46.2445956765   -41.6676007473   -36.4239391513   -31.3469442220   -28.6032826261   -25.0262876968   -22.2826261009 
   -0.6503869762    -1.8522818255    -1.5541766747    -1.7560715239    -2.6246330398    -4.3265278890    -5.1950894049    -5.8969842541    -5.2303175874    -7.3969842541   -10.5636509207   -13.8969842541   -18.2303175874   -22.0636509207   -27.3969842541   -31.5636509207   -33.7303175874   -35.8969842541   -39.8969842541   -43.3969842541   -47.3969842541   -49.3969842541   -49.7303175874   -50.5636509207   -52.2303175874   -51.5636509207   -47.8969842541   -41.3969842541   -35.3969842541   -30.2303175874   -23.3969842541   -18.0636509207   -13.3969842541    -9.8969842541    -6.8969842541    -4.8969842541    -0.3969842541     3.6030157459     3.9363490793     3.4363490793     3.2696824126     4.6030157459     1.9363490793    -5.3969842541   -12.8969842541   -19.5636509207   -24.5636509207   -28.5636509207   -33.0636509207   -37.0636509207   -39.0636509207   -39.5636509207   -41.5636509207   -44.5636509207   -47.0636509207   -48.7303175874   -48.5636509207   -48.2303175874   -45.8969842541   -42.5636509207   -38.7303175874   -33.3969842541   -29.5636509207   -25.8969842541   -22.8969842541   -19.2303175874   -16.2303175874   -12.8969842541    -9.2303175874    -6.7303175874    -3.5636509207     0.4363490793     2.6030157459    -0.5636509207    -6.5636509207    -9.7303175874   -12.0636509207   -21.0636509207   -32.0636509207   -38.8969842541   -42.0636509207   -43.8969842541   -43.7303175874   -40.8969842541   -36.2303175874   -31.0636509207   -26.5636509207   -23.2303175874   -21.7303175874   -22.8969842541   -31.7303175874   -35.0636509207   -34.5636509207   -27.5636509207   -17.5636509207   -12.0636509207    -7.7303175874    -9.0636509207   -13.3969842541   -21.8969842541   -28.7303175874   -33.7303175874   -36.0636509207   -40.5636509207   -40.2303175874   -35.2303175874   -19.7303175874    -8.8969842541    -2.3969842541     3.4363490793     7.7696824126     9.9363490793    11.6030157459    17.7696824126    22.9363490793    29.7696824126    33.9363490793    35.4363490793    33.2696824126    32.1030157459    25.9363490793    20.6030157459    11.1030157459     0.4363490793    -9.8969842541   -15.8969842541   -23.7303175874   -28.2303175874   -35.5636509207   -42.7303175874   -41.7303175874   -37.2303175874   -38.7303175874   -37.8969842541   -36.8969842541   -39.0636509207   -39.7303175874   -37.3969842541   -32.7303175874   -41.7303175874   -59.7303175874   -76.8969842541   -74.8969842541   -63.0636509207   -49.3969842541   -43.3969842541   -57.0636509207   -77.3969842541   -83.2303175874   -90.7303175874  -106.8969842541  -113.8969842541  -119.0636509207  -146.8969842541  -187.0636509207  -219.8969842541  -230.5636509207  -222.2303175874  -237.8969842541  -303.5636509207  -387.0636509207  -436.3969842541  -456.5636509207  -477.2303175874  -506.3969842541  -575.5636509207  -695.0636509207  -805.3969842541  -860.7303175874  -900.7303175874  -960.5636509207 -1122.7303175874 -1149.0636509207 -1049.8969842541  -996.5636509207  -913.0636509207  -754.2303175874  -691.7303175874  -737.2303175874  -821.0636509207  -734.3969842541  -463.2303175874  -174.2303175874   -28.7303175874    28.7696824126   143.7696824126   346.6030157459   645.4363490793   782.4363490793   803.9363490793   895.1030157459   960.6030157459   936.6030157459   975.4363490793  1090.6030157459  1131.6030157459   850.6030157459   327.4363490793   -68.0636509207  -242.5636509207  -343.5636509207  -389.3969842541  -426.0636509207  -432.0636509207  -425.2303175874  -455.0636509207  -500.2303175874  -511.2303175874  -497.2303175874  -489.3969842541  -473.8969842541  -350.8969842541   -90.8969842541   256.2696824126   503.7696824126   648.6030157459   742.6030157459   722.1030157459   638.4363490793   545.6030157459   459.6030157459   379.7696824126   301.4363490793   216.9363490793   126.2696824126    51.6030157459    -2.7303175874   -69.8969842541  -142.5636509207  -205.7303175874  -230.8969842541  -216.8969842541  -167.2303175874   -97.7303175874   -21.0636509207    45.2696824126    98.2696824126   138.2696824126   170.1030157459   203.7696824126   247.2696824126   284.6030157459   308.1030157459   347.1030157459   400.1030157459   455.4363490793   489.6030157459   497.7696824126   480.6030157459   449.7696824126   410.1030157459   369.6030157459   335.9363490793   310.1030157459   288.9363490793   273.6030157459   267.2696824126   268.2696824126   270.2696824126   276.4363490793   284.4363490793   291.6030157459   295.7696824126   296.6030157459   294.9363490793   292.6030157459   289.6030157459   284.6030157459   277.7696824126   268.7696824126   262.4363490793   255.1030157459   241.4363490793   220.9363490793   198.9363490793   177.7696824126   160.2696824126   143.4363490793   125.4363490793   108.4363490793    93.4363490793    80.2696824126    67.7696824126    58.6030157459    52.7696824126    50.2696824126    46.9363490793    45.1030157459    43.9363490793    44.7696824126    48.1030157459    52.2696824126    55.2696824126    58.2696824126    63.9363490793    70.9363490793    76.6030157459    82.4363490793    87.9363490793    92.2696824126    94.7696824126    96.7696824126    96.6030157459    93.9363490793    91.2696824126    88.6030157459    86.7696824126    84.1030157459    80.9363490793    76.9363490793    71.2696824126    66.6030157459    62.6030157459    57.7696824126    55.9363490793    53.7696824126    52.7696824126    51.6030157459    50.1030157459    48.1030157459    45.9363490793    45.2696824126    42.6030157459    37.9363490793    34.1030157459    31.4363490793    29.6030157459    27.6030157459    25.6030157459    22.9363490793    18.1030157459    14.9363490793    11.6030157459     8.7696824126     5.7696824126     1.9363490793    -1.2303175874    -4.2303175874    -5.7303175874    -6.3969842541    -7.0636509207    -7.3969842541    -7.7303175874    -8.3969842541    -9.0636509207    -9.3969842541    -8.7303175874    -9.5636509207   -12.0636509207   -13.7303175874   -15.0636509207   -14.3969842541   -14.2303175874   -15.2303175874   -17.0636509207   -18.0636509207   -19.3969842541   -21.0636509207   -22.8969842541   -26.5636509207   -30.0636509207   -32.3969842541   -34.5636509207   -37.5636509207   -40.0636509207   -43.0636509207   -43.2303175874   -42.7303175874   -43.2303175874   -43.5636509207   -42.3969842541   -43.2303175874   -44.8969842541   -47.8969842541   -51.7303175874   -53.3969842541   -55.3969842541   -57.7303175874   -60.2303175874   -60.5636509207   -58.8969842541   -56.3969842541   -54.7303175874   -53.5636509207   -52.3969842541   -51.8969842541   -50.3969842541   -46.8969842541   -42.8969842541   -39.0636509207   -35.0636509207   -31.3969842541   -27.3969842541   -23.7303175874   -21.7303175874   -19.3969842541   -18.0636509207   -19.5636509207   -23.2303175874   -26.8969842541   -29.7303175874   -31.8969842541   -37.2303175874   -41.3969842541   -44.2303175874   -45.7303175874   -44.8969842541   -43.3969842541   -41.0636509207   -39.7303175874   -37.8969842541   -36.8969842541   -37.3969842541   -35.2303175874   -31.7303175874   -28.0636509207   -24.8969842541   -20.7303175874   -16.7303175874   -13.5636509207   -10.0636509207    -5.5636509207    -3.5636509207    -3.3969842541    -4.3969842541    -4.7303175874    -5.5636509207    -6.3969842541    -6.7303175874    -9.2303175874   -10.8969842541   -11.8969842541   -12.3969842541   -15.0636509207   -17.3969842541   -19.7303175874   -22.7303175874   -27.8969842541   -33.3969842541   -37.7303175874   -40.8969842541   -42.8969842541   -43.8969842541   -45.8969842541   -47.7303175874   -48.3969842541   -49.3969842541   -50.3969842541   -50.8969842541   -50.2303175874   -48.2303175874   -46.8969842541   -46.3969842541   -45.3969842541   -42.7303175874   -41.0636509207   -40.7303175874   -40.5636509207   -39.8969842541   -39.3969842541   -36.2303175874   -35.2303175874   -31.0636509207   -29.2303175874   -30.2303175874   -32.8969842541   -35.2303175874   -35.7303175874   -34.7303175874   -34.0636509207   -34.7303175874   -34.8969842541   -33.2303175874   -30.6950894049   -28.9931945556   -26.2912997064   -26.0894048572   -23.7208433413   -24.5189484921   -23.6503869762   -20.2818254604 
   -4.6115107914    -5.8276045830    -7.7103650413    -9.0931254996    -9.3092192912    -9.3586464162    -9.0747402078    -7.9575006661    -7.7908339995    -8.6241673328   -10.4575006661   -12.2908339995   -14.1241673328   -15.9575006661   -15.2908339995   -13.9575006661   -12.4575006661   -12.2908339995   -12.1241673328   -13.4575006661   -17.2908339995   -22.7908339995   -28.4575006661   -33.2908339995   -35.9575006661   -40.2908339995   -44.4575006661   -47.1241673328   -48.1241673328   -48.2908339995   -49.4575006661   -51.4575006661   -53.2908339995   -53.4575006661   -52.1241673328   -50.9575006661   -49.4575006661   -47.9575006661   -47.6241673328   -48.6241673328   -49.9575006661   -49.9575006661   -49.9575006661   -49.1241673328   -47.7908339995   -46.7908339995   -46.2908339995   -45.1241673328   -44.6241673328   -42.9575006661   -41.9575006661   -40.6241673328   -39.2908339995   -36.2908339995   -32.1241673328   -28.4575006661   -26.9575006661   -27.4575006661   -29.1241673328   -30.7908339995   -34.2908339995   -37.2908339995   -39.7908339995   -41.2908339995   -43.4575006661   -48.1241673328   -52.1241673328   -55.9575006661   -57.9575006661   -58.2908339995   -58.2908339995   -58.4575006661   -56.7908339995   -54.1241673328   -51.2908339995   -48.9575006661   -44.7908339995   -41.7908339995   -38.6241673328   -35.2908339995   -32.9575006661   -30.1241673328   -27.4575006661   -23.4575006661   -22.2908339995   -24.2908339995   -26.9575006661   -29.9575006661   -35.9575006661   -42.7908339995   -45.4575006661   -44.7908339995   -43.9575006661   -40.9575006661   -36.9575006661   -35.7908339995   -35.4575006661   -35.9575006661   -37.9575006661   -42.6241673328   -44.2908339995   -42.2908339995   -39.9575006661   -38.6241673328   -35.4575006661   -30.4575006661   -23.7908339995   -20.4575006661   -18.9575006661   -19.9575006661   -24.1241673328   -27.9575006661   -30.1241673328   -31.2908339995   -33.7908339995   -36.7908339995   -38.4575006661   -41.6241673328   -46.6241673328   -53.4575006661   -63.1241673328   -71.6241673328   -82.9575006661   -88.6241673328   -94.4575006661  -100.6241673328  -106.7908339995  -108.2908339995  -102.2908339995   -92.9575006661   -84.1241673328   -83.6241673328  -105.7908339995  -164.2908339995  -220.1241673328  -238.4575006661  -233.2908339995  -236.6241673328  -254.2908339995  -282.9575006661  -305.2908339995  -324.7908339995  -329.4575006661  -347.4575006661  -391.9575006661  -427.6241673328  -450.9575006661  -498.2908339995  -553.2908339995  -510.4575006661  -421.7908339995  -385.7908339995  -415.4575006661  -436.9575006661  -417.6241673328  -392.1241673328  -401.1241673328  -448.9575006661  -529.6241673328  -496.6241673328  -412.1241673328  -456.9575006661  -545.6241673328  -570.4575006661  -451.1241673328  -368.9575006661  -402.4575006661  -466.4575006661  -462.4575006661  -426.7908339995  -349.2908339995  -299.1241673328  -310.2908339995  -229.1241673328     2.8758326672   172.5424993339   255.2091660005   378.7091660005   507.0424993339   653.8758326672   719.8758326672   741.0424993339   803.0424993339   856.5424993339   813.0424993339   607.0424993339   226.5424993339  -194.1241673328  -482.4575006661  -692.9575006661  -852.1241673328  -927.9575006661  -896.7908339995  -781.9575006661  -652.6241673328  -580.9575006661  -548.4575006661  -501.6241673328  -438.6241673328  -328.4575006661  -153.9575006661   133.7091660005   509.0424993339   937.2091660005  1308.5424993339  1532.0424993339  1573.3758326672  1489.0424993339  1354.5424993339  1215.7091660005  1085.7091660005   967.5424993339   850.7091660005   736.5424993339   628.5424993339   527.0424993339   428.0424993339   349.0424993339   312.3758326672   300.7091660005   303.5424993339   306.0424993339   312.8758326672   336.2091660005   365.2091660005   395.5424993339   431.7091660005   461.5424993339   485.7091660005   506.2091660005   527.8758326672   553.7091660005   583.8758326672   607.7091660005   600.7091660005   575.0424993339   549.3758326672   538.3758326672   522.2091660005   490.5424993339   447.7091660005   398.8758326672   350.7091660005   309.7091660005   276.5424993339   249.8758326672   226.2091660005   201.5424993339   179.0424993339   158.3758326672   143.3758326672   134.3758326672   124.8758326672   116.5424993339   110.8758326672   106.7091660005   106.0424993339   104.8758326672   103.3758326672   102.0424993339   102.2091660005   103.0424993339   103.5424993339   104.3758326672   108.7091660005   113.0424993339   113.2091660005   111.5424993339   108.3758326672   103.8758326672    96.5424993339    85.3758326672    72.5424993339    58.2091660005    41.0424993339    19.8758326672    -4.4575006661   -28.4575006661   -45.2908339995   -57.7908339995   -68.4575006661   -74.7908339995   -78.7908339995   -78.4575006661   -73.6241673328   -68.4575006661   -62.1241673328   -54.6241673328   -45.7908339995   -31.1241673328   -12.7908339995     5.0424993339    21.2091660005    33.0424993339    38.5424993339    39.8758326672    35.0424993339    26.0424993339    18.8758326672    12.5424993339     4.3758326672    -3.4575006661   -10.2908339995   -17.9575006661   -25.9575006661   -35.2908339995   -45.4575006661   -55.9575006661   -63.6241673328   -68.6241673328   -73.6241673328   -80.1241673328   -84.4575006661   -87.7908339995   -91.7908339995   -98.6241673328  -105.9575006661  -113.1241673328  -120.7908339995  -125.9575006661  -129.9575006661  -134.2908339995  -139.1241673328  -142.4575006661  -146.1241673328  -148.7908339995  -148.9575006661  -145.6241673328  -141.7908339995  -136.1241673328  -129.6241673328  -121.6241673328  -115.2908339995  -110.1241673328  -104.7908339995  -100.1241673328   -96.9575006661   -94.1241673328   -91.7908339995   -87.2908339995   -80.6241673328   -73.2908339995   -67.2908339995   -62.4575006661   -58.2908339995   -54.1241673328   -51.1241673328   -50.6241673328   -50.2908339995   -48.9575006661   -47.7908339995   -47.1241673328   -45.6241673328   -44.1241673328   -42.2908339995   -42.7908339995   -44.9575006661   -49.1241673328   -53.1241673328   -55.9575006661   -57.2908339995   -59.9575006661   -63.7908339995   -64.4575006661   -62.2908339995   -60.1241673328   -59.2908339995   -58.4575006661   -56.7908339995   -55.1241673328   -53.7908339995   -52.9575006661   -51.4575006661   -49.6241673328   -47.9575006661   -48.6241673328   -49.6241673328   -51.6241673328   -52.7908339995   -55.1241673328   -56.9575006661   -60.1241673328   -63.1241673328   -65.1241673328   -67.9575006661   -70.1241673328   -72.2908339995   -73.7908339995   -73.7908339995   -72.6241673328   -70.9575006661   -68.1241673328   -65.6241673328   -61.4575006661   -56.2908339995   -51.4575006661   -48.6241673328   -44.7908339995   -40.6241673328   -37.6241673328   -35.1241673328   -33.4575006661   -31.2908339995   -29.9575006661   -30.4575006661   -31.1241673328   -33.6241673328   -37.7908339995   -42.2908339995   -46.9575006661   -52.9575006661   -58.4575006661   -64.6241673328   -72.2908339995   -78.9575006661   -82.9575006661   -86.2908339995   -88.7908339995   -91.2908339995   -92.1241673328   -92.6241673328   -93.7908339995   -94.1241673328   -93.1241673328   -91.1241673328   -88.9575006661   -87.1241673328   -87.2908339995   -86.1241673328   -83.4575006661   -81.2908339995   -81.9575006661   -83.2908339995   -85.1241673328   -86.1241673328   -85.4575006661   -83.6241673328   -81.7908339995   -79.4575006661   -77.1241673328   -76.6241673328   -76.9575006661   -75.4575006661   -73.2908339995   -70.7908339995   -68.9575006661   -69.7908339995   -70.6241673328   -71.1241673328   -71.2908339995   -70.6241673328   -72.2908339995   -74.4575006661   -75.4575006661   -75.7908339995   -76.9575006661   -77.9575006661   -79.6241673328   -81.6241673328   -83.1241673328   -83.9575006661   -86.2908339995   -88.2908339995   -88.2908339995   -87.4575006661   -87.6241673328   -88.9575006661   -90.2908339995   -92.7908339995   -96.2908339995   -99.2908339995  -101.4575006661  -102.4575006661   -97.2414068745   -92.3586464162   -86.9758859579   -82.7597921663   -76.2103650413   -67.6609379163   -60.7781774580   -54.5620836664 
  -24.4112623432   -27.9939951962   -31.7433947158   -35.6594609021   -40.4088604217   -44.9915932746   -49.9076594609   -56.4903923139   -57.6570589805   -58.4903923139   -59.4903923139   -61.1570589805   -61.6570589805   -60.1570589805   -57.9903923139   -55.3237256472   -53.6570589805   -51.3237256472   -48.9903923139   -46.3237256472   -43.6570589805   -41.1570589805   -38.1570589805   -34.4903923139   -33.8237256472   -34.4903923139   -37.1570589805   -39.4903923139   -41.6570589805   -44.3237256472   -47.3237256472   -49.8237256472   -50.9903923139   -50.9903923139   -49.9903923139   -50.4903923139   -51.4903923139   -53.1570589805   -54.3237256472   -52.9903923139   -51.8237256472   -50.1570589805   -48.4903923139   -45.8237256472   -42.4903923139   -39.3237256472   -36.9903923139   -36.6570589805   -35.8237256472   -36.8237256472   -39.6570589805   -41.9903923139   -42.9903923139   -41.1570589805   -38.1570589805   -36.6570589805   -33.8237256472   -31.3237256472   -29.3237256472   -27.9903923139   -28.6570589805   -30.8237256472   -32.9903923139   -33.9903923139   -36.6570589805   -37.6570589805   -38.3237256472   -37.1570589805   -34.9903923139   -33.9903923139   -35.6570589805   -39.3237256472   -44.1570589805   -46.8237256472   -47.6570589805   -47.6570589805   -46.6570589805   -45.4903923139   -43.8237256472   -42.1570589805   -39.8237256472   -39.3237256472   -40.1570589805   -41.9903923139   -44.3237256472   -46.8237256472   -48.9903923139   -48.8237256472   -47.3237256472   -46.4903923139   -46.4903923139   -48.9903923139   -51.1570589805   -51.6570589805   -51.4903923139   -51.9903923139   -52.3237256472   -51.1570589805   -43.9903923139   -36.8237256472   -32.4903923139   -29.4903923139   -25.3237256472   -20.6570589805   -15.1570589805   -11.6570589805    -9.1570589805    -5.4903923139    -0.8237256472     4.3429410195     9.5096076861    13.5096076861    16.1762743528    17.5096076861    13.1762743528     9.3429410195     6.5096076861     5.1762743528     4.0096076861     0.1762743528    -6.9903923139    -9.9903923139   -11.6570589805   -13.8237256472    -9.3237256472   -10.1570589805   -17.4903923139   -25.1570589805   -30.6570589805   -29.1570589805   -22.9903923139   -17.6570589805   -10.4903923139    -7.6570589805   -16.4903923139   -39.3237256472   -59.1570589805   -79.9903923139   -95.9903923139  -109.1570589805  -128.1570589805  -139.1570589805  -135.3237256472  -133.3237256472  -153.6570589805  -209.3237256472  -273.9903923139  -322.8237256472  -341.3237256472  -337.6570589805  -318.8237256472  -286.3237256472  -278.8237256472  -285.8237256472  -282.3237256472  -302.6570589805  -351.6570589805  -431.1570589805  -530.3237256472  -604.6570589805  -598.8237256472  -573.8237256472  -604.6570589805  -684.4903923139  -676.9903923139  -610.4903923139  -579.9903923139  -628.4903923139  -702.8237256472  -741.4903923139  -760.4903923139  -735.3237256472  -648.3237256472  -562.9903923139  -504.4903923139  -333.6570589805  -150.1570589805   -56.3237256472    38.1762743528   263.0096076861   348.8429410195   273.6762743528   217.5096076861   290.3429410195   473.5096076861   681.6762743528   800.8429410195   849.3429410195   713.1762743528   464.3429410195   162.0096076861  -191.8237256472  -502.9903923139  -596.4903923139  -524.6570589805  -496.8237256472  -439.3237256472  -308.8237256472  -178.9903923139  -101.1570589805   -88.3237256472  -134.4903923139  -135.4903923139   -98.1570589805    74.6762743528   372.8429410195   752.5096076861  1037.1762743528  1189.6762743528  1219.1762743528  1146.3429410195  1021.8429410195   894.3429410195   780.5096076861   683.0096076861   590.5096076861   486.0096076861   395.1762743528   327.1762743528   274.0096076861   220.0096076861   182.8429410195   170.3429410195   167.3429410195   160.0096076861   166.1762743528   191.0096076861   238.1762743528   286.6762743528   329.1762743528   361.0096076861   390.5096076861   429.0096076861   459.0096076861   465.5096076861   462.6762743528   469.3429410195   472.0096076861   462.1762743528   453.8429410195   467.6762743528   473.8429410195   461.5096076861   430.3429410195   397.1762743528   368.0096076861   345.0096076861   316.8429410195   293.0096076861   272.5096076861   257.1762743528   244.6762743528   238.5096076861   233.1762743528   222.5096076861   212.6762743528   201.0096076861   185.8429410195   169.1762743528   147.8429410195   118.5096076861    88.6762743528    53.5096076861    25.0096076861    -1.1570589805   -23.6570589805   -39.9903923139   -54.6570589805   -69.3237256472   -81.3237256472   -88.4903923139   -92.9903923139   -93.8237256472   -92.3237256472   -93.4903923139   -95.9903923139   -94.1570589805   -93.3237256472   -84.9903923139   -74.3237256472   -63.9903923139   -56.8237256472   -53.8237256472   -50.8237256472   -47.4903923139   -43.8237256472   -41.9903923139   -41.6570589805   -44.3237256472   -46.1570589805   -46.1570589805   -45.8237256472   -48.8237256472   -49.8237256472   -49.3237256472   -50.6570589805   -50.3237256472   -48.9903923139   -45.9903923139   -43.9903923139   -43.8237256472   -43.6570589805   -44.3237256472   -46.4903923139   -49.3237256472   -52.1570589805   -55.4903923139   -57.6570589805   -57.9903923139   -58.3237256472   -62.4903923139   -67.4903923139   -71.3237256472   -73.9903923139   -75.9903923139   -77.6570589805   -79.3237256472   -82.8237256472   -85.3237256472   -87.3237256472   -86.6570589805   -86.3237256472   -86.3237256472   -85.9903923139   -86.8237256472   -92.4903923139   -95.4903923139   -96.3237256472   -96.8237256472   -96.9903923139   -97.6570589805   -97.6570589805   -98.1570589805   -97.6570589805   -97.1570589805   -94.1570589805   -92.8237256472   -91.8237256472   -89.8237256472   -87.3237256472   -83.8237256472   -79.8237256472   -77.1570589805   -76.6570589805   -76.8237256472   -78.8237256472   -81.4903923139   -83.6570589805   -81.9903923139   -79.4903923139   -77.9903923139   -77.8237256472   -76.8237256472   -74.9903923139   -73.8237256472   -75.4903923139   -79.4903923139   -79.3237256472   -78.3237256472   -76.6570589805   -75.1570589805   -73.9903923139   -72.3237256472   -70.1570589805   -68.9903923139   -67.4903923139   -66.3237256472   -65.4903923139   -64.3237256472   -63.8237256472   -63.4903923139   -61.3237256472   -56.8237256472   -54.8237256472   -53.4903923139   -54.1570589805   -56.1570589805   -55.8237256472   -55.9903923139   -54.9903923139   -55.1570589805   -56.8237256472   -57.8237256472   -58.1570589805   -58.1570589805   -58.6570589805   -57.8237256472   -56.1570589805   -53.1570589805   -52.3237256472   -50.9903923139   -47.3237256472   -42.6570589805   -38.6570589805   -35.8237256472   -36.4903923139   -37.4903923139   -38.3237256472   -38.4903923139   -40.1570589805   -42.6570589805   -44.6570589805   -46.8237256472   -49.3237256472   -54.8237256472   -57.1570589805   -60.4903923139   -61.8237256472   -62.4903923139   -62.9903923139   -61.9903923139   -59.9903923139   -57.4903923139   -53.6570589805   -52.3237256472   -51.1570589805   -49.6570589805   -47.6570589805   -45.8237256472   -45.3237256472   -43.6570589805   -43.1570589805   -40.9903923139   -39.9903923139   -39.1570589805   -39.1570589805   -39.4903923139   -38.3237256472   -36.4903923139   -36.4903923139   -35.1570589805   -33.4903923139   -32.9903923139   -32.3237256472   -31.3237256472   -29.3237256472   -26.6570589805   -23.3237256472   -20.8237256472   -19.8237256472   -19.4903923139   -19.3237256472   -18.9903923139   -18.6570589805   -19.6570589805   -21.8237256472   -25.8237256472   -28.9903923139   -30.1570589805   -32.3237256472   -35.1570589805   -37.8237256472   -39.4903923139   -40.1570589805   -41.8237256472   -41.9903923139   -42.3237256472   -43.4903923139   -44.1570589805   -45.1570589805   -45.8237256472   -45.4903923139   -41.9903923139   -37.3237256472   -32.9903923139   -29.8237256472   -27.9903923139   -27.6570589805   -27.8237256472   -28.1570589805   -26.4903923139   -26.3237256472   -26.1570589805   -23.7409927942   -21.3249266080   -19.9088604217   -18.1594609021   -15.9100613824   -14.6606618628   -14.9112623432   -15.8285294903 
  -24.2708833734   -26.9306111556   -27.7570056045   -29.5834000534   -32.2431278356   -35.0695222845   -37.0625834001   -39.2223111823   -37.0556445156   -36.5556445156   -37.2223111823   -38.7223111823   -39.5556445156   -41.0556445156   -44.0556445156   -48.0556445156   -49.0556445156   -48.2223111823   -47.7223111823   -46.7223111823   -46.2223111823   -46.3889778489   -47.3889778489   -47.3889778489   -46.3889778489   -45.7223111823   -44.7223111823   -43.8889778489   -43.8889778489   -44.8889778489   -45.0556445156   -42.3889778489   -41.3889778489   -44.5556445156   -47.8889778489   -50.5556445156   -51.3889778489   -50.0556445156   -52.0556445156   -53.0556445156   -53.8889778489   -54.5556445156   -54.3889778489   -53.0556445156   -50.3889778489   -47.7223111823   -45.0556445156   -45.5556445156   -45.5556445156   -43.3889778489   -43.0556445156   -42.3889778489   -42.3889778489   -44.2223111823   -42.7223111823   -43.5556445156   -42.2223111823   -38.3889778489   -34.7223111823   -34.0556445156   -36.8889778489   -39.0556445156   -39.2223111823   -37.3889778489   -34.7223111823   -33.8889778489   -33.7223111823   -34.8889778489   -36.7223111823   -38.8889778489   -41.0556445156   -41.0556445156   -47.5556445156   -56.2223111823   -61.3889778489   -64.3889778489   -66.3889778489   -66.5556445156   -66.7223111823   -67.7223111823   -69.5556445156   -69.0556445156   -67.2223111823   -64.8889778489   -62.7223111823   -60.5556445156   -59.7223111823   -60.2223111823   -56.8889778489   -52.8889778489   -53.3889778489   -53.3889778489   -52.8889778489   -53.5556445156   -54.2223111823   -55.7223111823   -59.5556445156   -64.5556445156   -67.8889778489   -72.5556445156   -75.5556445156   -76.5556445156   -75.8889778489   -75.0556445156   -77.8889778489   -85.5556445156   -83.3889778489   -77.5556445156   -72.8889778489   -74.7223111823   -79.3889778489   -82.7223111823   -77.2223111823   -72.0556445156   -65.7223111823   -61.0556445156   -74.8889778489   -86.3889778489   -80.3889778489   -60.2223111823   -33.8889778489   -21.2223111823   -18.0556445156   -15.8889778489   -20.2223111823   -24.5556445156   -21.3889778489   -16.0556445156   -17.3889778489   -12.8889778489    -6.8889778489    -4.7223111823     1.6110221511    -2.3889778489    -8.7223111823   -32.5556445156   -69.7223111823   -87.5556445156  -115.5556445156  -172.0556445156  -244.3889778489  -332.7223111823  -386.8889778489  -422.0556445156  -469.8889778489  -498.0556445156  -483.7223111823  -459.0556445156  -446.0556445156  -492.0556445156  -577.7223111823  -615.2223111823  -626.7223111823  -661.7223111823  -735.7223111823  -819.5556445156  -831.7223111823  -719.5556445156  -553.7223111823  -504.0556445156  -547.0556445156  -531.5556445156  -489.5556445156  -574.5556445156  -731.0556445156  -752.8889778489  -652.3889778489  -558.8889778489  -425.5556445156  -261.5556445156   -23.8889778489   235.1110221511   449.2776888177   545.2776888177   453.1110221511   454.1110221511   626.2776888177   712.6110221511   680.7776888177   774.6110221511   922.4443554844   978.9443554844   977.4443554844   942.9443554844   839.2776888177   616.4443554844   231.9443554844  -224.2223111823  -595.5556445156  -857.8889778489  -904.2223111823  -857.3889778489  -836.8889778489  -809.2223111823  -745.0556445156  -692.3889778489  -595.2223111823  -474.3889778489  -396.5556445156  -330.8889778489  -261.5556445156   -93.3889778489   197.6110221511   556.6110221511   816.4443554844   981.6110221511  1025.9443554844   986.4443554844   915.7776888177   836.2776888177   759.7776888177   685.2776888177   606.9443554844   523.2776888177   447.6110221511   392.7776888177   347.9443554844   312.6110221511   291.2776888177   293.2776888177   308.4443554844   330.2776888177   363.9443554844   384.2776888177   399.1110221511   418.4443554844   440.4443554844   463.4443554844   485.2776888177   511.6110221511   531.9443554844   535.1110221511   534.9443554844   534.6110221511   531.2776888177   518.6110221511   499.1110221511   472.2776888177   433.7776888177   402.6110221511   371.2776888177   338.1110221511   306.4443554844   278.6110221511   252.2776888177   224.1110221511   194.9443554844   170.9443554844   152.1110221511   134.6110221511   120.7776888177   109.6110221511   104.7776888177   103.1110221511    98.6110221511    90.6110221511    79.1110221511    70.4443554844    62.1110221511    55.1110221511    47.9443554844    41.4443554844    36.7776888177    27.7776888177    16.7776888177     5.6110221511    -7.3889778489   -21.0556445156   -38.3889778489   -57.3889778489   -75.8889778489   -94.0556445156  -110.0556445156  -127.0556445156  -140.7223111823  -150.2223111823  -155.0556445156  -154.7223111823  -153.2223111823  -149.5556445156  -142.5556445156  -134.2223111823  -122.3889778489  -108.8889778489   -93.8889778489   -77.7223111823   -59.5556445156   -41.0556445156   -22.8889778489    -6.5556445156     7.2776888177    16.9443554844    22.4443554844    21.4443554844    18.1110221511    15.7776888177    12.9443554844    10.7776888177     9.2776888177     5.7776888177     1.2776888177    -4.2223111823   -10.5556445156   -15.3889778489   -22.0556445156   -28.8889778489   -35.5556445156   -41.7223111823   -47.5556445156   -52.7223111823   -56.5556445156   -61.0556445156   -66.8889778489   -72.3889778489   -79.7223111823   -87.2223111823   -91.0556445156   -93.5556445156   -94.8889778489   -96.8889778489   -97.3889778489   -97.3889778489   -97.2223111823   -95.3889778489   -92.5556445156   -88.5556445156   -86.3889778489   -83.3889778489   -81.7223111823   -80.0556445156   -79.7223111823   -77.2223111823   -76.8889778489   -76.5556445156   -76.2223111823   -76.2223111823   -74.8889778489   -73.0556445156   -70.7223111823   -69.3889778489   -68.5556445156   -68.8889778489   -67.3889778489   -65.8889778489   -62.7223111823   -60.3889778489   -57.7223111823   -56.8889778489   -55.2223111823   -54.5556445156   -56.0556445156   -57.3889778489   -59.7223111823   -61.0556445156   -62.8889778489   -63.3889778489   -63.2223111823   -61.3889778489   -60.8889778489   -62.7223111823   -67.0556445156   -70.0556445156   -71.2223111823   -71.2223111823   -70.2223111823   -68.8889778489   -66.2223111823   -64.0556445156   -62.5556445156   -61.0556445156   -60.7223111823   -61.7223111823   -63.3889778489   -63.5556445156   -63.2223111823   -60.8889778489   -56.0556445156   -52.3889778489   -49.8889778489   -49.3889778489   -51.2223111823   -52.2223111823   -53.2223111823   -53.2223111823   -53.7223111823   -54.3889778489   -55.5556445156   -55.3889778489   -53.8889778489   -53.0556445156   -53.3889778489   -54.0556445156   -55.2223111823   -56.8889778489   -58.8889778489   -59.3889778489   -59.0556445156   -59.5556445156   -60.7223111823   -61.0556445156   -61.5556445156   -62.2223111823   -60.0556445156   -57.8889778489   -57.3889778489   -58.5556445156   -58.5556445156   -58.0556445156   -56.8889778489   -57.2223111823   -58.2223111823   -59.2223111823   -60.8889778489   -62.3889778489   -62.7223111823   -64.3889778489   -64.2223111823   -65.2223111823   -66.7223111823   -67.8889778489   -67.2223111823   -64.7223111823   -61.5556445156   -58.3889778489   -58.0556445156   -56.0556445156   -52.5556445156   -47.8889778489   -41.7223111823   -36.2223111823   -31.5556445156   -26.5556445156   -21.7223111823   -15.8889778489   -10.8889778489    -7.7223111823    -5.3889778489    -3.3889778489    -1.7223111823    -2.3889778489    -1.3889778489    -1.5556445156    -2.5556445156    -3.2223111823    -5.0556445156    -6.8889778489    -8.8889778489    -9.8889778489   -11.3889778489   -12.8889778489   -15.3889778489   -17.7223111823   -20.0556445156   -23.8889778489   -26.7223111823   -28.7223111823   -32.2223111823   -34.0556445156   -34.0556445156   -35.7223111823   -37.5556445156   -40.3889778489   -42.5556445156   -44.7223111823   -48.2223111823   -53.7223111823   -57.8889778489   -61.8889778489   -65.3889778489   -69.3889778489   -76.3889778489   -80.7223111823   -82.7223111823   -78.7292500667   -76.5695222845   -74.0764611689   -70.9167333867   -66.0903389378   -61.0972778223   -57.2708833734   -52.6111555911 
   74.9771817454    82.4746463838    91.6387776888   100.6362423272   108.4670402989   114.4645049373   120.1286362423   125.4594342140   119.4594342140   111.9594342140   104.7927675474    98.9594342140    94.4594342140    89.7927675474    83.4594342140    77.4594342140    71.6261008807    64.4594342140    55.7927675474    45.7927675474    35.6261008807    27.1261008807    20.1261008807    14.4594342140    11.2927675474     8.6261008807     4.9594342140    -0.0405657860    -4.8738991193    -8.3738991193   -10.8738991193   -13.2072324526   -15.0405657860   -15.3738991193   -17.3738991193   -18.8738991193   -20.0405657860   -20.2072324526   -21.0405657860   -24.2072324526   -28.5405657860   -32.2072324526   -34.7072324526   -37.8738991193   -43.3738991193   -52.2072324526   -60.0405657860   -63.7072324526   -65.3738991193   -68.8738991193   -70.5405657860   -71.0405657860   -70.2072324526   -71.0405657860   -73.5405657860   -76.5405657860   -77.7072324526   -77.5405657860   -77.2072324526   -77.8738991193   -77.3738991193   -75.0405657860   -72.7072324526   -75.2072324526   -80.0405657860   -85.5405657860   -91.8738991193   -99.5405657860  -108.5405657860  -118.0405657860  -125.0405657860  -129.5405657860  -134.8738991193  -141.5405657860  -147.7072324526  -151.8738991193  -156.2072324526  -159.0405657860  -162.0405657860  -166.3738991193  -172.0405657860  -176.7072324526  -181.8738991193  -183.8738991193  -185.5405657860  -189.2072324526  -194.0405657860  -198.3738991193  -202.5405657860  -208.3738991193  -216.0405657860  -223.8738991193  -230.8738991193  -241.3738991193  -253.0405657860  -262.2072324526  -268.8738991193  -276.7072324526  -284.2072324526  -291.8738991193  -298.3738991193  -304.5405657860  -311.5405657860  -318.2072324526  -325.8738991193  -331.0405657860  -332.3738991193  -330.5405657860  -331.0405657860  -331.8738991193  -335.0405657860  -341.7072324526  -349.5405657860  -354.8738991193  -359.8738991193  -367.0405657860  -377.8738991193  -383.0405657860  -388.0405657860  -388.5405657860  -382.5405657860  -378.8738991193  -377.8738991193  -380.7072324526  -385.5405657860  -389.2072324526  -385.5405657860  -383.5405657860  -390.7072324526  -406.5405657860  -424.3738991193  -431.8738991193  -431.5405657860  -423.2072324526  -407.3738991193  -412.7072324526  -437.8738991193  -459.5405657860  -478.3738991193  -503.2072324526  -537.3738991193  -566.8738991193  -583.5405657860  -588.8738991193  -592.3738991193  -609.0405657860  -607.7072324526  -608.8738991193  -611.8738991193  -610.8738991193  -614.5405657860  -602.2072324526  -586.7072324526  -594.3738991193  -605.3738991193  -584.8738991193  -540.3738991193  -531.2072324526  -564.0405657860  -640.3738991193  -690.5405657860  -690.5405657860  -707.5405657860  -718.0405657860  -716.5405657860  -718.5405657860  -747.3738991193  -839.3738991193  -872.0405657860  -815.3738991193  -724.3738991193  -699.8738991193  -739.8738991193  -749.3738991193  -716.2072324526  -583.2072324526  -394.8738991193  -241.2072324526  -110.3738991193    20.7927675474   180.2927675474   299.6261008807   324.7927675474   353.1261008807   404.9594342140   490.7927675474   576.7927675474   726.9594342140   909.1261008807  1036.4594342140  1099.2927675474  1071.1261008807   956.9594342140   844.9594342140   754.1261008807   577.4594342140   217.9594342140  -206.0405657860  -482.8738991193  -601.2072324526  -676.2072324526  -753.8738991193  -800.8738991193  -846.2072324526  -873.5405657860  -857.3738991193  -809.5405657860  -747.3738991193  -686.2072324526  -633.2072324526  -584.7072324526  -466.5405657860  -209.0405657860   139.1261008807   456.9594342140   670.9594342140   763.4594342140   755.4594342140   681.9594342140   580.6261008807   481.4594342140   394.4594342140   322.9594342140   265.1261008807   215.7927675474   160.7927675474   105.4594342140    71.9594342140    49.4594342140    26.6261008807     3.9594342140   -18.3738991193   -34.5405657860   -47.3738991193   -66.8738991193   -77.8738991193   -86.0405657860   -89.8738991193   -89.0405657860   -89.7072324526   -89.8738991193   -74.3738991193   -50.7072324526   -51.2072324526   -62.3738991193   -71.2072324526   -79.0405657860   -82.0405657860   -85.8738991193   -93.0405657860   -94.5405657860  -102.2072324526  -112.5405657860  -124.2072324526  -143.8738991193  -162.7072324526  -178.2072324526  -192.5405657860  -206.8738991193  -219.2072324526  -231.7072324526  -242.8738991193  -251.3738991193  -263.7072324526  -278.7072324526  -293.5405657860  -307.7072324526  -321.3738991193  -335.5405657860  -351.3738991193  -364.8738991193  -377.2072324526  -388.3738991193  -399.2072324526  -411.3738991193  -421.2072324526  -429.8738991193  -437.5405657860  -447.2072324526  -453.7072324526  -457.2072324526  -459.2072324526  -459.5405657860  -460.5405657860  -459.3738991193  -458.7072324526  -457.7072324526  -456.2072324526  -453.7072324526  -450.7072324526  -445.3738991193  -439.7072324526  -434.7072324526  -430.3738991193  -426.2072324526  -423.0405657860  -418.7072324526  -414.2072324526  -410.0405657860  -406.5405657860  -404.8738991193  -401.5405657860  -397.8738991193  -395.3738991193  -393.8738991193  -392.5405657860  -391.7072324526  -389.0405657860  -386.8738991193  -389.0405657860  -393.0405657860  -395.7072324526  -397.3738991193  -399.3738991193  -402.2072324526  -403.0405657860  -401.8738991193  -400.7072324526  -398.8738991193  -396.5405657860  -395.7072324526  -395.3738991193  -394.5405657860  -394.5405657860  -394.7072324526  -392.0405657860  -388.7072324526  -386.2072324526  -385.5405657860  -384.2072324526  -381.0405657860  -377.2072324526  -373.5405657860  -370.7072324526  -368.5405657860  -365.8738991193  -360.8738991193  -355.3738991193  -352.5405657860  -350.8738991193  -347.8738991193  -343.5405657860  -336.0405657860  -328.3738991193  -322.2072324526  -316.5405657860  -312.7072324526  -307.5405657860  -302.3738991193  -298.2072324526  -295.2072324526  -293.2072324526  -291.2072324526  -290.2072324526  -288.8738991193  -286.7072324526  -284.3738991193  -283.2072324526  -283.7072324526  -284.8738991193  -284.2072324526  -284.2072324526  -283.7072324526  -285.7072324526  -288.7072324526  -292.3738991193  -294.3738991193  -295.8738991193  -297.2072324526  -297.5405657860  -295.5405657860  -293.7072324526  -292.0405657860  -289.0405657860  -286.3738991193  -283.5405657860  -282.5405657860  -278.8738991193  -271.5405657860  -265.2072324526  -260.5405657860  -254.7072324526  -249.0405657860  -241.2072324526  -234.0405657860  -227.5405657860  -221.8738991193  -215.8738991193  -210.3738991193  -207.2072324526  -204.3738991193  -199.8738991193  -192.2072324526  -185.8738991193  -184.8738991193  -182.2072324526  -176.2072324526  -168.8738991193  -161.8738991193  -157.3738991193  -152.0405657860  -146.3738991193  -140.5405657860  -134.3738991193  -129.8738991193  -124.5405657860  -117.8738991193  -112.8738991193  -109.7072324526  -108.5405657860  -105.3738991193  -102.3738991193  -101.0405657860  -100.5405657860   -99.8738991193   -99.7072324526  -100.5405657860  -101.8738991193  -102.8738991193  -104.8738991193  -105.7072324526  -104.8738991193  -104.3738991193  -103.2072324526  -103.0405657860  -102.8738991193  -103.0405657860  -103.0405657860  -101.8738991193  -101.8738991193  -104.2072324526  -103.8738991193  -102.0405657860  -101.0405657860  -100.3738991193  -100.3738991193  -101.2072324526  -103.0405657860  -104.0405657860  -105.5405657860  -105.5405657860  -103.3738991193  -101.7072324526   -99.3738991193   -96.7072324526   -93.2072324526   -88.7072324526   -86.5405657860   -87.3738991193   -86.8738991193   -85.7072324526   -83.5405657860   -80.5405657860   -79.0405657860   -78.8738991193   -77.3738991193   -75.7072324526   -76.7072324526   -76.3738991193   -76.7072324526   -76.7072324526   -75.7072324526   -73.8738991193   -71.8738991193   -68.0405657860   -63.2072324526   -58.7072324526   -56.0405657860   -52.7072324526   -49.0405657860   -45.7072324526   -43.5405657860   -41.0405657860   -35.8713637577   -31.3688283961   -26.8662930344   -23.1970910061   -20.1945556445   -17.0253536162   -13.6894849213   -11.0202828930 
  -66.4717989842   -74.4501470195   -81.4284950548   -87.7401764234   -94.0518577920   -99.3635391607  -103.6752205293  -108.8202352312  -108.3202352312  -106.8202352312  -106.6535685646  -104.3202352312  -100.8202352312   -99.6535685646   -96.9869018979   -94.9869018979   -92.9869018979   -89.4869018979   -86.8202352312   -84.6535685646   -83.8202352312   -84.4869018979   -85.9869018979   -87.4869018979   -88.8202352312   -90.3202352312   -91.3202352312   -92.8202352312   -96.3202352312   -97.1535685646   -97.8202352312   -97.1535685646   -98.6535685646  -101.1535685646  -105.6535685646  -110.1535685646  -111.6535685646  -111.3202352312  -110.8202352312  -109.1535685646  -108.4869018979  -109.8202352312  -110.3202352312  -109.8202352312  -107.9869018979  -106.3202352312  -104.4869018979  -102.1535685646  -100.1535685646   -98.1535685646   -94.3202352312   -91.1535685646   -90.4869018979   -90.8202352312   -91.6535685646   -92.6535685646   -91.9869018979   -89.9869018979   -88.8202352312   -87.6535685646   -84.4869018979   -80.1535685646   -77.8202352312   -77.4869018979   -76.4869018979   -76.8202352312   -77.8202352312   -80.8202352312   -81.4869018979   -80.9869018979   -80.3202352312   -75.3202352312   -67.4869018979   -59.1535685646   -52.4869018979   -48.3202352312   -46.3202352312   -44.9869018979   -43.1535685646   -41.9869018979   -43.9869018979   -44.3202352312   -41.1535685646   -33.8202352312   -27.9869018979   -24.1535685646   -18.4869018979   -15.4869018979   -15.8202352312   -19.4869018979   -20.8202352312   -19.6535685646   -18.8202352312   -21.4869018979   -25.3202352312   -27.4869018979   -25.4869018979   -22.1535685646   -20.6535685646   -21.4869018979   -23.8202352312   -25.6535685646   -29.8202352312   -34.9869018979   -40.9869018979   -43.3202352312   -46.1535685646   -50.1535685646   -53.9869018979   -53.4869018979   -51.3202352312   -49.1535685646   -47.6535685646   -49.3202352312   -52.3202352312   -56.4869018979   -60.6535685646   -60.9869018979   -59.1535685646   -59.4869018979   -56.4869018979   -53.4869018979   -53.8202352312   -58.8202352312   -60.4869018979   -59.4869018979   -61.1535685646   -64.9869018979   -72.3202352312   -73.4869018979   -72.9869018979   -77.1535685646   -82.9869018979   -85.6535685646   -84.9869018979   -80.3202352312   -72.6535685646   -68.9869018979   -62.8202352312   -55.4869018979   -54.8202352312   -60.9869018979   -64.4869018979   -64.8202352312   -59.9869018979   -61.8202352312   -76.3202352312   -95.9869018979  -108.3202352312  -117.9869018979  -117.8202352312  -132.9869018979  -181.6535685646  -255.9869018979  -322.6535685646  -357.9869018979  -359.1535685646  -347.8202352312  -359.1535685646  -387.3202352312  -398.9869018979  -388.9869018979  -396.1535685646  -438.9869018979  -499.1535685646  -525.4869018979  -493.4869018979  -418.4869018979  -342.9869018979  -308.3202352312  -314.8202352312  -342.9869018979  -366.6535685646  -402.8202352312  -372.8202352312  -330.1535685646  -320.1535685646  -329.3202352312  -261.6535685646   -99.8202352312    22.8464314354    81.1797647688    20.1797647688   -33.9869018979    65.1797647688   279.0130981021   449.1797647688   632.8464314354   827.8464314354   940.3464314354   977.1797647688  1060.8464314354  1139.0130981021  1219.3464314354  1222.6797647688  1139.6797647688  1092.1797647688   998.5130981021   804.5130981021   480.0130981021   100.3464314354  -192.8202352312  -339.9869018979  -438.1535685646  -548.3202352312  -559.4869018979  -541.4869018979  -574.9869018979  -595.1535685646  -621.4869018979  -623.8202352312  -589.6535685646  -538.9869018979  -420.9869018979  -154.9869018979   203.1797647688   486.3464314354   629.5130981021   706.8464314354   715.3464314354   690.8464314354   655.8464314354   617.3464314354   576.8464314354   539.6797647688   498.1797647688   472.8464314354   446.6797647688   415.0130981021   388.1797647688   366.3464314354   355.3464314354   355.0130981021   361.8464314354   370.5130981021   379.6797647688   384.0130981021   380.1797647688   381.6797647688   395.8464314354   412.5130981021   437.0130981021   449.5130981021   462.3464314354   476.0130981021   480.6797647688   479.5130981021   468.0130981021   449.1797647688   433.5130981021   413.0130981021   387.6797647688   361.6797647688   336.0130981021   313.0130981021   288.0130981021   262.0130981021   237.0130981021   213.5130981021   192.8464314354   176.6797647688   161.6797647688   142.6797647688   125.6797647688   110.1797647688    91.6797647688    72.5130981021    57.1797647688    44.5130981021    36.5130981021    25.3464314354    13.3464314354     4.0130981021    -7.1535685646   -20.6535685646   -35.6535685646   -50.9869018979   -63.4869018979   -72.9869018979   -83.8202352312   -96.9869018979  -110.9869018979  -122.3202352312  -132.8202352312  -141.3202352312  -150.1535685646  -156.1535685646  -162.3202352312  -170.6535685646  -179.4869018979  -183.6535685646  -184.8202352312  -184.3202352312  -182.3202352312  -181.3202352312  -181.4869018979  -178.6535685646  -172.8202352312  -168.3202352312  -165.9869018979  -164.9869018979  -161.6535685646  -159.9869018979  -157.1535685646  -152.6535685646  -147.4869018979  -145.6535685646  -145.6535685646  -146.6535685646  -149.9869018979  -151.4869018979  -150.8202352312  -151.6535685646  -153.3202352312  -156.1535685646  -157.3202352312  -157.1535685646  -157.6535685646  -158.9869018979  -161.4869018979  -162.9869018979  -162.3202352312  -161.1535685646  -159.1535685646  -157.9869018979  -156.3202352312  -151.1535685646  -148.9869018979  -145.9869018979  -144.9869018979  -142.6535685646  -140.6535685646  -137.6535685646  -135.3202352312  -132.6535685646  -130.8202352312  -130.8202352312  -131.6535685646  -133.1535685646  -135.3202352312  -137.3202352312  -137.9869018979  -142.4869018979  -144.3202352312  -146.3202352312  -144.9869018979  -143.4869018979  -142.4869018979  -143.3202352312  -145.4869018979  -146.6535685646  -145.9869018979  -141.8202352312  -139.4869018979  -136.1535685646  -131.3202352312  -124.6535685646  -116.6535685646  -108.8202352312  -102.1535685646   -95.1535685646   -88.1535685646   -80.6535685646   -73.9869018979   -68.8202352312   -62.9869018979   -56.8202352312   -49.9869018979   -45.9869018979   -40.1535685646   -35.8202352312   -31.8202352312   -28.4869018979   -28.6535685646   -29.6535685646   -31.3202352312   -34.1535685646   -37.8202352312   -42.1535685646   -45.1535685646   -45.9869018979   -47.6535685646   -50.1535685646   -54.4869018979   -58.9869018979   -62.9869018979   -65.6535685646   -67.8202352312   -71.3202352312   -74.3202352312   -76.6535685646   -78.3202352312   -79.1535685646   -80.1535685646   -80.8202352312   -81.8202352312   -82.3202352312   -82.3202352312   -83.8202352312   -85.1535685646   -87.4869018979   -91.1535685646   -94.3202352312   -99.6535685646  -103.3202352312  -106.3202352312  -107.1535685646  -106.9869018979  -106.8202352312  -105.9869018979  -105.8202352312  -104.9869018979  -103.8202352312  -102.3202352312  -101.8202352312  -100.1535685646   -96.6535685646   -92.1535685646   -88.3202352312   -83.4869018979   -80.8202352312   -77.4869018979   -76.8202352312   -75.4869018979   -74.3202352312   -73.9869018979   -71.6535685646   -69.1535685646   -68.1535685646   -66.4869018979   -64.1535685646   -62.3202352312   -61.4869018979   -61.3202352312   -61.1535685646   -61.4869018979   -58.9869018979   -56.4869018979   -54.3202352312   -53.4869018979   -52.6535685646   -51.1535685646   -51.1535685646   -50.4869018979   -49.9869018979   -52.1535685646   -51.9869018979   -50.8202352312   -48.8202352312   -47.8202352312   -47.3202352312   -46.3202352312   -45.8202352312   -45.9869018979   -45.9869018979   -46.9869018979   -47.4869018979   -47.3202352312   -46.8202352312   -48.1535685646   -50.1535685646   -48.9869018979   -47.4869018979   -48.1535685646   -50.4869018979   -51.4869018979   -50.8202352312   -48.9869018979   -47.9869018979   -46.9869018979   -44.3202352312   -39.6535685646   -35.6535685646   -32.5085538626   -30.0302058273   -26.3851911254   -22.0735097568   -19.2618283881   -17.4501470195   -14.4717989842   -10.6601176156 
   -0.0157459301    -0.2767547371    -0.7044302108     0.0345609821     0.1068855084     0.1792100347    -1.0817987723    -2.0094742461    -3.3428075794    -2.6761409127    -3.5094742461    -3.0094742461    -2.6761409127    -3.5094742461    -4.6761409127    -4.3428075794    -4.3428075794    -3.5094742461    -2.5094742461    -2.5094742461    -2.8428075794    -4.8428075794    -6.3428075794    -7.5094742461    -9.1761409127   -11.3428075794   -12.3428075794   -12.8428075794   -14.1761409127   -16.6761409127   -18.8428075794   -21.1761409127   -23.5094742461   -25.5094742461   -28.3428075794   -30.3428075794   -29.5094742461   -26.0094742461   -21.6761409127   -17.5094742461   -14.0094742461   -11.6761409127    -9.5094742461    -9.0094742461    -7.8428075794    -4.5094742461    -0.3428075794     3.8238590873     7.3238590873     9.4905257539    12.8238590873    15.1571924206    15.1571924206    15.6571924206    15.6571924206    14.3238590873    14.3238590873    14.8238590873    15.1571924206    16.8238590873    17.9905257539    19.3238590873    20.8238590873    22.3238590873    23.8238590873    24.8238590873    24.3238590873    23.9905257539    23.4905257539    20.4905257539    16.8238590873    14.4905257539    11.4905257539     9.1571924206     7.6571924206     4.8238590873     1.1571924206    -1.6761409127    -3.5094742461    -6.3428075794    -8.6761409127    -9.8428075794    -9.8428075794    -8.3428075794    -6.6761409127    -3.8428075794     0.3238590873     4.4905257539     8.4905257539     9.6571924206     9.3238590873     9.8238590873    11.9905257539    13.1571924206    12.6571924206    11.6571924206    10.9905257539     9.9905257539     8.4905257539     4.4905257539    -0.0094742461    -3.8428075794    -7.1761409127   -10.6761409127   -15.1761409127   -22.0094742461   -30.0094742461   -32.6761409127   -32.6761409127   -30.8428075794   -28.5094742461   -25.6761409127   -23.6761409127   -24.8428075794   -29.3428075794   -35.8428075794   -43.8428075794   -57.8428075794   -74.1761409127   -89.8428075794   -95.0094742461   -84.5094742461   -69.6761409127   -64.0094742461   -76.6761409127   -87.6761409127   -90.0094742461   -88.8428075794   -97.5094742461  -119.3428075794  -131.0094742461  -130.3428075794  -124.0094742461  -109.6761409127   -90.0094742461   -65.5094742461   -63.3428075794   -98.5094742461  -143.5094742461  -164.6761409127  -167.1761409127  -176.8428075794  -193.3428075794  -185.3428075794  -128.1761409127   -50.3428075794   -16.0094742461   -36.8428075794   -80.6761409127  -137.1761409127  -251.6761409127  -372.1761409127  -457.0094742461  -482.8428075794  -437.0094742461  -441.5094742461  -499.6761409127  -573.5094742461  -640.5094742461  -723.6761409127  -857.8428075794  -954.1761409127 -1023.3428075794 -1059.8428075794  -969.8428075794  -815.6761409127  -630.8428075794  -455.3428075794  -341.8428075794  -306.3428075794  -277.6761409127  -102.6761409127   106.6571924206   208.4905257539   217.8238590873   352.8238590873   562.1571924206   683.1571924206   774.8238590873   901.8238590873   898.6571924206   725.8238590873   677.9905257539   686.8238590873   619.8238590873   437.4905257539    89.4905257539  -342.1761409127  -663.5094742461  -752.1761409127  -632.0094742461  -565.6761409127  -535.1761409127  -463.5094742461  -369.6761409127  -314.5094742461  -254.1761409127   -94.8428075794   -46.5094742461   -49.5094742461    51.9905257539   305.1571924206   669.4905257539   995.6571924206  1221.1571924206  1343.4905257539  1344.8238590873  1271.6571924206  1169.9905257539  1068.1571924206   961.3238590873   854.1571924206   753.4905257539   682.3238590873   624.9905257539   545.1571924206   439.6571924206   351.1571924206   289.3238590873   245.4905257539   217.6571924206   208.1571924206   222.4905257539   238.1571924206   255.6571924206   272.4905257539   300.6571924206   344.3238590873   395.8238590873   428.9905257539   454.6571924206   505.6571924206   593.6571924206   668.3238590873   707.8238590873   735.4905257539   754.3238590873   750.6571924206   719.1571924206   674.4905257539   626.6571924206   581.6571924206   543.6571924206   502.4905257539   458.3238590873   423.4905257539   395.6571924206   370.8238590873   339.9905257539   309.6571924206   287.3238590873   265.8238590873   245.3238590873   226.3238590873   204.9905257539   183.1571924206   163.6571924206   147.3238590873   134.8238590873   126.8238590873   126.1571924206   120.4905257539   110.6571924206    98.6571924206    90.4905257539    84.3238590873    73.8238590873    63.6571924206    51.4905257539    40.6571924206    33.1571924206    28.6571924206    24.4905257539    20.3238590873    15.4905257539    11.1571924206     4.8238590873    -0.0094742461    -4.5094742461    -6.8428075794    -5.5094742461    -2.8428075794     1.8238590873     5.9905257539    10.6571924206    12.6571924206    14.1571924206    16.6571924206    19.3238590873    21.3238590873    21.9905257539    22.3238590873    22.9905257539    23.8238590873    21.8238590873    17.1571924206     9.3238590873     3.1571924206    -2.5094742461   -11.3428075794   -21.8428075794   -33.3428075794   -44.8428075794   -55.8428075794   -66.0094742461   -77.0094742461   -87.3428075794   -96.6761409127  -104.8428075794  -114.0094742461  -120.3428075794  -125.6761409127  -128.1761409127  -130.6761409127  -135.0094742461  -138.6761409127  -141.0094742461  -139.8428075794  -137.3428075794  -135.6761409127  -135.5094742461  -134.1761409127  -133.3428075794  -134.3428075794  -135.0094742461  -135.6761409127  -134.3428075794  -132.3428075794  -131.0094742461  -131.0094742461  -131.6761409127  -130.5094742461  -127.0094742461  -124.3428075794  -124.3428075794  -125.1761409127  -126.6761409127  -127.1761409127  -125.5094742461  -123.5094742461  -121.6761409127  -118.1761409127  -115.5094742461  -114.8428075794  -116.3428075794  -117.3428075794  -116.3428075794  -113.8428075794  -112.5094742461  -110.5094742461  -108.1761409127  -106.8428075794  -104.3428075794  -103.3428075794  -102.5094742461  -102.5094742461  -103.5094742461  -105.1761409127  -107.6761409127  -109.8428075794  -111.5094742461  -112.8428075794  -113.5094742461  -115.6761409127  -119.5094742461  -124.5094742461  -127.8428075794  -129.3428075794  -131.1761409127  -132.1761409127  -132.8428075794  -132.1761409127  -130.3428075794  -130.0094742461  -132.0094742461  -133.6761409127  -134.0094742461  -133.0094742461  -132.5094742461  -132.0094742461  -130.5094742461  -127.3428075794  -123.8428075794  -121.1761409127  -118.1761409127  -116.5094742461  -115.8428075794  -114.5094742461  -113.8428075794  -112.5094742461  -109.0094742461  -105.0094742461  -101.5094742461  -100.3428075794  -100.1761409127  -100.3428075794  -100.0094742461  -100.6761409127  -101.6761409127  -102.3428075794  -102.6761409127  -100.8428075794   -98.5094742461   -97.5094742461   -95.5094742461   -93.5094742461   -91.6761409127   -90.1761409127   -89.1761409127   -86.3428075794   -83.8428075794   -81.1761409127   -79.1761409127   -75.5094742461   -73.0094742461   -72.0094742461   -69.5094742461   -66.3428075794   -62.1761409127   -58.1761409127   -56.8428075794   -55.3428075794   -53.1761409127   -50.5094742461   -46.1761409127   -43.1761409127   -38.8428075794   -34.5094742461   -31.1761409127   -31.3428075794   -31.8428075794   -29.8428075794   -28.5094742461   -29.1761409127   -30.3428075794   -32.1761409127   -32.6761409127   -30.8428075794   -29.5094742461   -29.1761409127   -31.1761409127   -32.1761409127   -32.6761409127   -32.6761409127   -32.5094742461   -31.8428075794   -30.8428075794   -30.0094742461   -28.3428075794   -28.1761409127   -29.8428075794   -29.6761409127   -28.6761409127   -30.8428075794   -33.0094742461   -34.0094742461   -34.8428075794   -36.6761409127   -39.1761409127   -42.5094742461   -45.5094742461   -47.1761409127   -47.8428075794   -48.0094742461   -49.0094742461   -49.5094742461   -48.1761409127   -45.6761409127   -42.6761409127   -40.0094742461   -37.8428075794   -36.3428075794   -32.8428075794   -28.7484654390   -24.8207899653   -20.5597811583   -15.7987723512   -11.8710968775    -8.7767547371    -7.0157459301    -6.0880704564 
