  -34.0713712911   -38.3015236568   -41.5316760224   -43.7618283881   -45.8253140871   -48.8887997861   -51.9522854852   -53.0157711842   -50.3491045175   -49.5157711842   -49.5157711842   -48.5157711842   -46.0157711842   -42.5157711842   -41.3491045175   -42.0157711842   -44.5157711842   -45.1824378508   -46.1824378508   -48.0157711842   -50.3491045175   -52.1824378508   -53.8491045175   -57.8491045175   -62.0157711842   -66.0157711842   -68.1824378508   -67.5157711842   -67.5157711842   -70.0157711842   -71.6824378508   -71.0157711842   -66.8491045175   -62.1824378508   -58.3491045175   -55.6824378508   -53.3491045175   -49.6824378508   -46.0157711842   -42.0157711842   -38.8491045175   -34.0157711842   -27.8491045175   -24.1824378508   -22.6824378508   -22.1824378508   -20.3491045175   -17.8491045175   -16.3491045175   -16.5157711842   -16.8491045175   -16.5157711842   -15.1824378508   -14.0157711842   -13.0157711842   -12.6824378508   -12.0157711842    -9.6824378508    -7.1824378508    -5.8491045175    -4.3491045175     0.9842288158     7.1508954825    12.6508954825    14.8175621492    14.6508954825    14.8175621492    15.3175621492    16.8175621492    16.1508954825    15.6508954825    18.1508954825    22.4842288158    25.8175621492    27.6508954825    28.8175621492    30.1508954825    30.1508954825    28.8175621492    25.9842288158    25.6508954825    28.3175621492    30.8175621492    33.6508954825    34.4842288158    36.4842288158    37.8175621492    37.9842288158    36.4842288158    32.1508954825    26.8175621492    24.1508954825    23.8175621492    23.9842288158    23.8175621492    24.3175621492    24.9842288158    25.8175621492    27.3175621492    28.1508954825    28.4842288158    29.3175621492    31.3175621492    33.3175621492    35.6508954825    39.6508954825    43.9842288158    46.6508954825    48.1508954825    47.8175621492    43.4842288158    41.8175621492    42.3175621492    41.3175621492    39.3175621492    38.3175621492    38.3175621492    38.3175621492    38.6508954825    37.1508954825    36.4842288158    36.4842288158    37.4842288158    39.4842288158    41.4842288158    45.1508954825    50.4842288158    53.8175621492    56.1508954825    59.1508954825    61.6508954825    63.6508954825    66.6508954825    66.9842288158    65.4842288158    65.6508954825    63.1508954825    57.4842288158    44.4842288158    29.3175621492    10.8175621492     4.1508954825     6.8175621492    13.6508954825    20.4842288158    24.1508954825    24.1508954825    26.9842288158    26.6508954825    25.9842288158    26.8175621492    22.9842288158    27.9842288158    37.3175621492    45.4842288158    47.8175621492    60.8175621492    56.6508954825    46.9842288158    36.9842288158    19.9842288158     8.8175621492   -15.0157711842   -50.1824378508   -89.1824378508  -124.3491045175  -141.1824378508  -145.1824378508  -157.8491045175  -184.0157711842  -242.0157711842  -273.3491045175  -303.1824378508  -347.1824378508  -373.1824378508  -399.6824378508  -435.8491045175  -467.8491045175  -484.3491045175  -488.1824378508  -444.8491045175  -407.6824378508  -414.6824378508  -402.6824378508  -379.3491045175  -401.8491045175  -369.5157711842  -354.1824378508  -255.8491045175  -106.1824378508    12.9842288158    93.8175621492    89.8175621492   108.1508954825   135.6508954825   154.3175621492   148.1508954825   122.8175621492   202.9842288158   288.1508954825   356.4842288158   422.1508954825   443.8175621492   456.4842288158   404.8175621492   290.6508954825   200.4842288158   174.4842288158   283.1508954825   365.6508954825   427.1508954825   479.6508954825   500.6508954825   524.1508954825   449.4842288158   334.3175621492   237.4842288158   223.9842288158   241.1508954825   253.6508954825   224.4842288158   225.1508954825   213.3175621492   175.8175621492    96.8175621492    29.3175621492    -7.1824378508   -13.5157711842    -4.6824378508    11.1508954825    35.6508954825    75.3175621492   119.8175621492   143.6508954825   161.9842288158   188.6508954825   219.3175621492   250.8175621492   284.8175621492   318.9842288158   353.1508954825   358.3175621492   342.9842288158   321.4842288158   310.6508954825   320.9842288158   345.8175621492   357.3175621492   347.1508954825   333.9842288158   324.9842288158   320.4842288158   325.1508954825   325.8175621492   320.8175621492   312.4842288158   313.1508954825   327.8175621492   344.8175621492   348.4842288158   339.6508954825   322.8175621492   300.1508954825   281.1508954825   266.1508954825   249.4842288158   232.4842288158   217.9842288158   204.8175621492   195.4842288158   188.3175621492   179.8175621492   167.3175621492   156.3175621492   145.9842288158   136.4842288158   128.9842288158   124.8175621492   120.9842288158   117.9842288158   114.6508954825   113.4842288158   111.3175621492   107.1508954825   102.8175621492    97.6508954825    93.1508954825    89.1508954825    86.9842288158    81.9842288158    75.4842288158    70.1508954825    65.1508954825    59.1508954825    53.6508954825    45.9842288158    38.6508954825    31.9842288158    26.4842288158    17.3175621492     6.4842288158    -4.0157711842   -11.5157711842   -16.6824378508   -21.3491045175   -25.0157711842   -27.6824378508   -28.5157711842   -29.8491045175   -33.3491045175   -37.8491045175   -37.6824378508   -34.8491045175   -32.5157711842   -31.8491045175   -29.6824378508   -24.8491045175   -19.3491045175   -17.6824378508   -18.1824378508   -20.3491045175   -21.8491045175   -23.8491045175   -26.8491045175   -31.8491045175   -35.8491045175   -39.3491045175   -42.8491045175   -48.3491045175   -54.1824378508   -57.3491045175   -60.1824378508   -64.3491045175   -69.1824378508   -72.8491045175   -76.5157711842   -77.6824378508   -76.8491045175   -72.0157711842   -67.5157711842   -61.8491045175   -57.1824378508   -52.0157711842   -47.8491045175   -44.6824378508   -40.3491045175   -37.1824378508   -33.8491045175   -31.6824378508   -30.1824378508   -29.8491045175   -28.8491045175   -30.0157711842   -33.6824378508   -40.0157711842   -47.1824378508   -53.1824378508   -56.6824378508   -61.0157711842   -66.8491045175   -73.3491045175   -81.6824378508   -86.3491045175   -89.6824378508   -92.8491045175   -95.3491045175   -97.5157711842  -100.0157711842  -101.6824378508  -102.8491045175  -104.8491045175  -104.8491045175  -103.8491045175  -102.8491045175  -101.1824378508   -99.5157711842   -96.1824378508   -91.5157711842   -89.8491045175   -88.5157711842   -87.6824378508   -87.6824378508   -86.0157711842   -84.3491045175   -84.5157711842   -86.0157711842   -86.3491045175   -86.1824378508   -84.6824378508   -83.5157711842   -82.3491045175   -80.5157711842   -79.3491045175   -76.3491045175   -73.8491045175   -74.8491045175   -75.5157711842   -74.8491045175   -74.6824378508   -73.3491045175   -70.3491045175   -67.0157711842   -64.3491045175   -62.1824378508   -62.5157711842   -65.5157711842   -69.3491045175   -71.3491045175   -71.3491045175   -71.6824378508   -71.5157711842   -68.1824378508   -64.3491045175   -60.6824378508   -57.8491045175   -57.5157711842   -57.3491045175   -55.3491045175   -53.8491045175   -54.3491045175   -57.5157711842   -58.1824378508   -55.6824378508   -54.6824378508   -55.8491045175   -59.8491045175   -63.1824378508   -65.8491045175   -67.3491045175   -69.1824378508   -70.3491045175   -69.1824378508   -68.0157711842   -68.8491045175   -69.8491045175   -69.8491045175   -65.6824378508   -62.6824378508   -60.5157711842   -57.5157711842   -55.1824378508   -51.5157711842   -49.1824378508   -48.5157711842   -49.6824378508   -49.8491045175   -51.5157711842   -52.6824378508   -53.0157711842   -53.5157711842   -54.0157711842   -54.3491045175   -55.3491045175   -56.0157711842   -58.0157711842   -61.5157711842   -64.1824378508   -66.5157711842   -67.1824378508   -66.6824378508   -65.3491045175   -64.0157711842   -60.5157711842   -58.5157711842   -57.8491045175   -54.5157711842   -50.8491045175   -47.3491045175   -45.6824378508   -43.8491045175   -44.1824378508   -43.5157711842   -39.6824378508   -34.9522854852   -31.3887997861   -28.4919807538   -25.4284950548   -23.0316760224   -21.8015236568   -20.5713712911   -18.5078855921 
   26.2095009341    29.2698158527    32.9967974380    36.2237790232    39.4507606085    43.3444088604    47.7380571124    51.9650386976    50.9650386976    48.7983720310    46.2983720310    45.1317053643    42.7983720310    40.2983720310    37.1317053643    33.6317053643    30.7983720310    28.1317053643    25.1317053643    22.6317053643    20.2983720310    17.7983720310    15.6317053643    13.2983720310    12.2983720310    13.2983720310    14.7983720310    15.9650386976    17.7983720310    18.6317053643    19.9650386976    23.2983720310    27.7983720310    31.6317053643    33.7983720310    35.1317053643    35.4650386976    35.9650386976    35.4650386976    34.6317053643    32.1317053643    30.2983720310    28.4650386976    26.7983720310    24.6317053643    23.1317053643    21.7983720310    18.7983720310    14.6317053643     9.4650386976     5.2983720310     2.4650386976     1.6317053643     0.9650386976     0.2983720310    -1.0349613024    -0.3682946357    -0.5349613024    -0.0349613024     0.2983720310    -0.2016279690    -2.3682946357    -4.2016279690    -4.8682946357    -6.7016279690    -8.8682946357    -9.2016279690    -9.8682946357   -11.5349613024   -14.7016279690   -16.7016279690   -17.3682946357   -17.5349613024   -18.0349613024   -20.2016279690   -21.2016279690   -19.3682946357   -14.8682946357   -10.3682946357    -5.0349613024     1.9650386976     8.1317053643    12.9650386976    19.1317053643    24.1317053643    29.2983720310    33.7983720310    38.7983720310    42.4650386976    45.6317053643    49.4650386976    52.1317053643    53.9650386976    53.7983720310    52.4650386976    48.6317053643    44.6317053643    43.7983720310    43.2983720310    41.2983720310    39.9650386976    39.2983720310    37.7983720310    36.6317053643    34.7983720310    32.7983720310    31.6317053643    30.7983720310    28.6317053643    26.1317053643    25.7983720310    27.7983720310    28.1317053643    26.4650386976    24.1317053643    22.1317053643    21.4650386976    19.7983720310    17.9650386976    14.2983720310    11.9650386976    12.7983720310    14.1317053643    13.4650386976    12.9650386976    13.2983720310    12.2983720310    11.7983720310    12.4650386976    12.6317053643    12.4650386976    12.7983720310    11.7983720310    10.1317053643     9.2983720310     9.7983720310    10.9650386976    10.6317053643     9.7983720310     9.7983720310     9.9650386976    11.6317053643    12.9650386976    11.1317053643     9.4650386976     9.4650386976    10.7983720310    10.6317053643     9.9650386976     9.6317053643     8.9650386976     7.7983720310     6.2983720310     5.1317053643     2.1317053643     0.6317053643     0.1317053643    -2.3682946357    -5.2016279690    -6.7016279690   -10.7016279690   -20.5349613024   -27.2016279690   -35.8682946357   -47.5349613024   -53.0349613024   -52.8682946357   -56.3682946357   -66.7016279690   -72.8682946357   -76.2016279690   -75.8682946357   -84.8682946357  -105.7016279690  -125.2016279690  -162.0349613024  -205.2016279690  -234.5349613024  -263.8682946357  -295.3682946357  -357.3682946357  -441.2016279690  -515.5349613024  -533.8682946357  -548.0349613024  -572.0349613024  -560.2016279690  -611.8682946357  -717.5349613024  -802.7016279690  -831.5349613024  -777.2016279690  -743.5349613024  -718.8682946357  -622.8682946357  -451.2016279690  -255.7016279690   -78.3682946357    76.9650386976   148.1317053643   210.9650386976   233.4650386976   240.6317053643   316.4650386976   397.9650386976   489.7983720310   571.6317053643   607.2983720310   680.4650386976   729.9650386976   677.1317053643   540.4650386976   410.6317053643   279.1317053643   217.1317053643   206.1317053643   195.9650386976   216.7983720310   218.1317053643   211.1317053643   268.1317053643   316.6317053643   307.4650386976   280.1317053643   230.9650386976   188.2983720310   166.7983720310   169.2983720310   170.7983720310   220.9650386976   220.2983720310   201.6317053643   188.9650386976   183.7983720310   174.7983720310   161.2983720310   141.7983720310   120.4650386976   117.9650386976   109.1317053643   110.9650386976   123.9650386976   134.6317053643   134.6317053643   146.2983720310   149.4650386976   152.9650386976   161.9650386976   172.1317053643   179.4650386976   173.7983720310   168.9650386976   174.6317053643   180.7983720310   179.1317053643   178.2983720310   180.9650386976   191.9650386976   207.6317053643   220.2983720310   228.4650386976   235.1317053643   231.1317053643   217.6317053643   204.4650386976   200.1317053643   209.2983720310   218.7983720310   215.9650386976   205.1317053643   192.4650386976   182.4650386976   174.6317053643   166.2983720310   158.9650386976   153.7983720310   145.4650386976   135.1317053643   123.1317053643   112.7983720310   104.2983720310    96.6317053643    90.1317053643    85.6317053643    81.2983720310    77.6317053643    77.4650386976    78.6317053643    77.4650386976    73.7983720310    71.9650386976    70.4650386976    70.6317053643    71.6317053643    70.4650386976    69.7983720310    68.2983720310    68.7983720310    69.1317053643    67.7983720310    65.7983720310    62.1317053643    56.4650386976    52.2983720310    48.1317053643    42.7983720310    38.4650386976    34.9650386976    30.7983720310    25.1317053643    21.6317053643    18.6317053643    18.2983720310    15.1317053643    12.1317053643    10.7983720310    11.2983720310    12.1317053643    11.9650386976     9.4650386976     6.6317053643     6.7983720310     6.9650386976     8.4650386976     8.4650386976     8.6317053643     9.7983720310    11.1317053643    11.6317053643    11.9650386976    11.1317053643    10.1317053643    10.1317053643    10.7983720310    10.4650386976     9.4650386976     7.7983720310     6.1317053643     5.6317053643     3.2983720310     2.1317053643     1.7983720310     0.6317053643    -1.2016279690    -4.0349613024    -6.0349613024    -5.5349613024    -3.5349613024    -2.8682946357    -3.0349613024    -2.0349613024     1.7983720310     6.4650386976    10.7983720310    11.2983720310    10.6317053643     9.9650386976     8.7983720310     8.7983720310     9.6317053643    11.7983720310    15.4650386976    18.7983720310    21.6317053643    23.4650386976    25.6317053643    28.6317053643    28.4650386976    27.7983720310    24.7983720310    21.7983720310    22.2983720310    23.6317053643    25.2983720310    24.2983720310    20.9650386976    15.6317053643     8.4650386976    -0.3682946357   -10.2016279690   -18.0349613024   -24.0349613024   -28.0349613024   -30.2016279690   -33.8682946357   -35.8682946357   -35.0349613024   -35.5349613024   -36.3682946357   -37.5349613024   -38.0349613024   -35.3682946357   -32.2016279690   -27.3682946357   -22.8682946357   -18.3682946357   -15.5349613024   -14.8682946357   -16.3682946357   -17.7016279690   -18.0349613024   -17.8682946357   -16.7016279690   -16.5349613024   -18.3682946357   -21.2016279690   -22.7016279690   -24.5349613024   -26.3682946357   -29.7016279690   -32.7016279690   -35.7016279690   -37.5349613024   -38.2016279690   -39.7016279690   -40.7016279690   -41.0349613024   -42.0349613024   -43.3682946357   -43.8682946357   -43.7016279690   -43.3682946357   -44.3682946357   -46.5349613024   -48.5349613024   -50.5349613024   -51.5349613024   -50.5349613024   -50.5349613024   -52.3682946357   -53.5349613024   -54.3682946357   -53.7016279690   -50.7016279690   -48.8682946357   -49.2016279690   -48.0349613024   -44.0349613024   -38.7016279690   -33.3682946357   -28.2016279690   -23.2016279690   -19.0349613024   -16.5349613024   -15.7016279690   -14.7016279690   -13.8682946357   -15.2016279690   -18.3682946357   -23.8682946357   -29.8682946357   -32.3682946357   -34.0349613024   -37.3682946357   -42.0349613024   -45.8682946357   -47.3682946357   -47.8682946357   -48.5349613024   -50.2016279690   -50.5349613024   -50.3682946357   -48.0349613024   -43.7016279690   -39.2016279690   -35.0349613024   -30.7016279690   -27.7016279690   -26.8682946357   -27.2016279690   -26.7016279690   -25.0349613024   -25.2016279690   -24.7619428876   -23.9889244729   -22.3825727248   -20.1095543101   -17.1698692287   -15.8968508140   -15.1238323992   -14.1841473179 
   18.4959903769    22.6066559743    26.8839882384    29.8279871692    30.2719861000    31.2159850307    32.1599839615    33.1039828923    27.6039828923    23.9373162256    22.1039828923    20.4373162256    17.1039828923    12.4373162256     7.6039828923     4.1039828923     1.6039828923    -2.2293504411    -9.0626837744   -15.3960171077   -18.3960171077   -20.8960171077   -22.5626837744   -24.2293504411   -23.7293504411   -23.0626837744   -23.3960171077   -25.2293504411   -28.0626837744   -29.2293504411   -30.5626837744   -31.8960171077   -36.2293504411   -41.2293504411   -43.7293504411   -45.0626837744   -46.3960171077   -47.5626837744   -49.3960171077   -51.8960171077   -52.5626837744   -51.8960171077   -50.7293504411   -49.3960171077   -45.7293504411   -41.5626837744   -36.5626837744   -33.2293504411   -30.3960171077   -27.3960171077   -24.3960171077   -22.0626837744   -22.2293504411   -23.0626837744   -22.5626837744   -20.5626837744   -18.7293504411   -17.7293504411   -18.5626837744   -18.8960171077   -18.2293504411   -16.0626837744   -15.0626837744   -16.5626837744   -16.0626837744   -14.0626837744   -10.8960171077    -7.0626837744    -2.3960171077     0.4373162256     1.9373162256     3.9373162256     3.6039828923     1.1039828923     0.6039828923     1.1039828923     1.2706495589     0.1039828923    -0.8960171077     0.6039828923     2.1039828923     4.2706495589     4.7706495589     4.7706495589     5.4373162256     8.7706495589    12.1039828923    13.1039828923    15.1039828923    17.9373162256    22.1039828923    25.7706495589    27.6039828923    26.6039828923    23.9373162256    21.6039828923    19.2706495589    15.7706495589    12.4373162256     8.7706495589     5.2706495589     1.6039828923    -1.8960171077    -4.2293504411    -8.0626837744   -10.0626837744   -13.2293504411   -16.2293504411   -18.5626837744   -17.3960171077   -13.8960171077    -9.8960171077    -7.0626837744    -5.2293504411    -3.5626837744    -0.3960171077     3.6039828923     6.6039828923     9.4373162256    10.7706495589    14.2706495589    16.7706495589    18.4373162256    18.2706495589    16.9373162256    14.9373162256    11.9373162256     9.2706495589     6.2706495589     5.1039828923     4.9373162256     4.4373162256     3.1039828923     0.9373162256    -0.8960171077    -0.8960171077    -1.0626837744    -2.2293504411    -4.8960171077    -6.8960171077    -7.2293504411    -7.2293504411    -7.7293504411   -11.0626837744   -14.0626837744   -17.3960171077   -18.3960171077   -18.5626837744   -19.8960171077   -20.5626837744   -20.0626837744   -18.3960171077   -17.0626837744   -14.2293504411    -9.5626837744    -3.2293504411     4.4373162256     9.9373162256    13.6039828923    15.7706495589    18.4373162256    16.6039828923    11.7706495589     7.2706495589    -0.0626837744   -10.2293504411   -16.0626837744   -22.0626837744   -34.2293504411   -53.7293504411   -76.2293504411  -108.8960171077  -131.3960171077  -151.2293504411  -188.5626837744  -234.7293504411  -268.2293504411  -289.0626837744  -292.8960171077  -313.3960171077  -366.7293504411  -377.2293504411  -400.8960171077  -446.7293504411  -497.8960171077  -539.0626837744  -576.5626837744  -634.0626837744  -702.7293504411  -763.8960171077  -802.3960171077  -701.8960171077  -614.3960171077  -543.5626837744  -463.2293504411  -345.7293504411  -225.8960171077  -143.2293504411   -41.3960171077    56.4373162256   182.1039828923   258.2706495589   328.1039828923   460.6039828923   596.7706495589   715.9373162256   784.2706495589   686.9373162256   577.4373162256   537.2706495589   506.9373162256   460.2706495589   452.6039828923   447.4373162256   389.2706495589   367.6039828923   344.4373162256   359.1039828923   363.6039828923   298.6039828923   225.7706495589   176.2706495589   160.4373162256   194.4373162256   259.4373162256   267.9373162256   213.1039828923   110.4373162256    18.9373162256   -12.8960171077    11.4373162256    12.2706495589   -34.7293504411   -80.7293504411   -94.0626837744   -40.8960171077    29.4373162256    78.6039828923   129.9373162256   157.6039828923   162.4373162256   161.7706495589   188.6039828923   251.4373162256   298.9373162256   286.9373162256   261.7706495589   246.7706495589   263.4373162256   282.6039828923   281.1039828923   249.6039828923   210.6039828923   178.6039828923   158.4373162256   148.7706495589   143.2706495589   134.9373162256   126.7706495589   128.4373162256   135.6039828923   140.1039828923   140.2706495589   137.4373162256   131.9373162256   130.2706495589   131.7706495589   132.7706495589   127.7706495589   121.2706495589   115.6039828923   112.4373162256   109.6039828923   110.2706495589   109.2706495589   103.4373162256    93.7706495589    81.9373162256    70.6039828923    62.1039828923    59.9373162256    62.2706495589    64.4373162256    63.7706495589    62.9373162256    63.1039828923    62.4373162256    59.9373162256    59.2706495589    60.1039828923    59.9373162256    60.1039828923    55.6039828923    48.2706495589    43.6039828923    42.6039828923    39.7706495589    33.2706495589    26.9373162256    23.6039828923    21.4373162256    17.4373162256    12.1039828923     4.7706495589    -3.0626837744   -10.3960171077   -14.8960171077   -17.8960171077   -17.5626837744   -14.7293504411   -12.2293504411   -10.7293504411   -10.5626837744   -11.5626837744   -12.3960171077   -11.0626837744   -10.8960171077   -10.8960171077    -9.7293504411    -4.3960171077    -0.0626837744     3.9373162256     6.6039828923     6.2706495589     3.7706495589     2.4373162256     2.9373162256     2.1039828923     0.2706495589    -0.3960171077     0.4373162256    -0.3960171077    -0.2293504411     0.6039828923     2.7706495589     4.2706495589     5.2706495589     5.4373162256     6.9373162256     8.7706495589     9.4373162256     9.7706495589     7.1039828923     5.4373162256     5.1039828923     5.9373162256     7.1039828923     7.1039828923     4.9373162256     3.4373162256     1.9373162256     0.9373162256     0.7706495589    -2.8960171077    -6.8960171077    -8.7293504411    -6.8960171077    -5.3960171077    -5.0626837744    -4.3960171077    -3.3960171077    -3.2293504411    -5.7293504411    -7.7293504411    -9.3960171077   -10.3960171077   -12.0626837744   -14.2293504411   -17.8960171077   -18.3960171077   -17.7293504411   -15.7293504411   -15.8960171077   -16.8960171077   -14.8960171077   -12.8960171077    -9.0626837744    -7.7293504411    -8.0626837744    -8.8960171077    -7.7293504411    -7.0626837744    -6.5626837744    -8.5626837744   -10.2293504411   -10.3960171077    -9.0626837744   -10.2293504411   -12.0626837744   -13.7293504411   -15.8960171077   -18.3960171077   -23.2293504411   -26.5626837744   -28.3960171077   -29.8960171077   -31.8960171077   -33.8960171077   -37.0626837744   -36.7293504411   -33.7293504411   -33.5626837744   -37.2293504411   -39.5626837744   -39.3960171077   -38.7293504411   -38.2293504411   -40.2293504411   -43.0626837744   -46.5626837744   -48.2293504411   -47.5626837744   -47.7293504411   -47.7293504411   -46.7293504411   -46.5626837744   -48.5626837744   -48.8960171077   -47.3960171077   -45.5626837744   -42.8960171077   -38.5626837744   -36.0626837744   -32.5626837744   -27.7293504411   -23.0626837744   -19.3960171077   -18.5626837744   -19.2293504411   -20.7293504411   -22.0626837744   -22.3960171077   -22.3960171077   -23.0626837744   -24.3960171077   -25.8960171077   -27.2293504411   -31.3960171077   -35.3960171077   -38.3960171077   -40.3960171077   -40.0626837744   -39.3960171077   -38.7293504411   -37.0626837744   -32.8960171077   -29.3960171077   -29.0626837744   -29.8960171077   -31.7293504411   -32.5626837744   -33.8960171077   -36.0626837744   -38.8960171077   -40.5626837744   -40.5626837744   -40.5626837744   -42.5626837744   -44.2293504411   -44.3960171077   -43.7293504411   -44.3960171077   -46.3960171077   -46.8960171077   -46.2293504411   -44.0626837744   -42.7293504411   -40.5626837744   -39.5626837744   -36.7293504411   -32.7293504411   -29.8960171077   -26.7293504411   -24.1733493718   -21.4506816359   -19.5613472334   -17.5053461641   -15.9493450949   -12.7266773590    -9.5040096231    -6.6146752205 
  -17.1415799306   -19.7313851081   -21.1545236189   -21.2443287964   -21.3341339738   -19.7572724847   -17.6804109955   -16.2702161729   -15.6035495063   -16.2702161729   -15.2702161729   -12.1035495063    -8.4368828396    -4.2702161729    -0.6035495063     4.0631171604     9.2297838271    11.8964504937    13.3964504937    12.7297838271    12.3964504937    10.8964504937     8.8964504937     6.3964504937     5.2297838271     5.8964504937     6.2297838271     5.3964504937     4.7297838271     6.0631171604     7.8964504937     8.5631171604     5.3964504937     3.3964504937     1.8964504937     1.8964504937     2.2297838271     1.3964504937     0.7297838271     0.7297838271     0.0631171604    -1.4368828396    -4.2702161729    -6.2702161729    -7.4368828396    -8.4368828396    -9.2702161729   -11.6035495063   -13.1035495063   -13.2702161729   -13.2702161729   -13.6035495063   -16.1035495063   -19.2702161729   -22.2702161729   -22.7702161729   -24.6035495063   -28.4368828396   -32.2702161729   -35.7702161729   -38.7702161729   -44.4368828396   -50.7702161729   -54.7702161729   -55.7702161729   -55.1035495063   -55.2702161729   -56.9368828396   -57.2702161729   -56.4368828396   -54.2702161729   -55.1035495063   -56.9368828396   -57.6035495063   -55.6035495063   -53.7702161729   -52.2702161729   -48.1035495063   -43.9368828396   -38.6035495063   -35.2702161729   -34.2702161729   -34.6035495063   -34.7702161729   -34.2702161729   -34.1035495063   -33.4368828396   -31.6035495063   -27.9368828396   -24.1035495063   -21.9368828396   -20.1035495063   -18.4368828396   -19.2702161729   -18.6035495063   -18.4368828396   -18.2702161729   -17.9368828396   -17.6035495063   -15.6035495063   -13.1035495063   -10.4368828396   -11.4368828396   -11.7702161729   -11.1035495063    -8.9368828396    -6.6035495063    -5.1035495063    -5.6035495063    -3.4368828396    -1.9368828396    -1.4368828396    -1.4368828396    -0.1035495063     2.3964504937     2.7297838271     2.5631171604     2.8964504937     5.0631171604     7.0631171604     7.0631171604     7.2297838271     7.8964504937     7.2297838271     8.5631171604     9.2297838271     9.2297838271     6.2297838271     3.8964504937     1.3964504937     0.2297838271     0.8964504937    -0.4368828396    -1.1035495063    -1.4368828396    -7.1035495063   -14.2702161729   -21.1035495063   -26.2702161729   -29.1035495063   -31.7702161729   -34.4368828396   -34.4368828396   -34.6035495063   -38.4368828396   -35.9368828396   -32.2702161729   -31.6035495063   -31.7702161729   -40.1035495063   -48.2702161729   -49.6035495063   -43.7702161729   -42.6035495063   -38.1035495063   -38.2702161729   -49.9368828396   -63.9368828396   -89.4368828396  -114.2702161729  -124.4368828396  -160.6035495063  -186.7702161729  -212.9368828396  -265.9368828396  -290.7702161729  -292.4368828396  -314.1035495063  -328.7702161729  -312.1035495063  -279.6035495063  -235.4368828396  -189.4368828396  -186.6035495063  -192.7702161729  -188.2702161729  -193.2702161729  -165.2702161729  -138.6035495063  -124.2702161729   -70.1035495063   -38.9368828396    -6.7702161729    42.5631171604    31.3964504937   -39.9368828396  -143.1035495063  -179.4368828396  -163.7702161729   -74.4368828396     5.0631171604    53.0631171604    49.2297838271    12.7297838271    11.5631171604    71.2297838271   125.3964504937   176.2297838271   123.8964504937    -1.2702161729    -9.2702161729    55.2297838271   174.0631171604   227.8964504937   229.5631171604   185.5631171604   147.8964504937   133.0631171604   168.8964504937   230.5631171604   231.2297838271   215.2297838271   192.5631171604   167.7297838271   159.7297838271   262.2297838271   311.2297838271   308.5631171604   268.0631171604   229.2297838271   191.5631171604   174.8964504937   174.3964504937   169.7297838271   162.7297838271   155.2297838271   168.7297838271   148.7297838271   125.7297838271   112.3964504937   155.8964504937   161.7297838271   152.3964504937   144.8964504937   145.0631171604   137.3964504937   135.7297838271   123.8964504937   109.7297838271   100.0631171604   102.7297838271   105.2297838271    98.2297838271    91.5631171604    89.3964504937    85.7297838271    88.5631171604    88.5631171604    91.7297838271   108.5631171604   118.7297838271   125.5631171604   134.5631171604   143.5631171604   161.2297838271   179.0631171604   185.2297838271   184.2297838271   185.0631171604   187.3964504937   190.2297838271   190.3964504937   184.3964504937   178.0631171604   171.5631171604   164.0631171604   151.0631171604   138.0631171604   122.7297838271   109.7297838271    95.8964504937    82.2297838271    70.8964504937    59.7297838271    49.3964504937    39.3964504937    27.0631171604    16.5631171604    10.0631171604     6.8964504937     1.2297838271    -8.7702161729   -21.4368828396   -35.2702161729   -44.4368828396   -51.1035495063   -57.6035495063   -63.1035495063   -68.6035495063   -73.1035495063   -77.2702161729   -79.1035495063   -79.1035495063   -78.1035495063   -76.1035495063   -71.6035495063   -66.4368828396   -62.4368828396   -58.4368828396   -53.2702161729   -49.7702161729   -43.1035495063   -36.4368828396   -32.2702161729   -28.7702161729   -25.7702161729   -20.7702161729   -16.9368828396   -13.1035495063   -10.7702161729    -8.6035495063    -8.4368828396    -9.2702161729    -7.7702161729    -6.4368828396    -5.1035495063    -2.7702161729    -2.9368828396    -4.1035495063    -3.6035495063    -3.6035495063    -3.9368828396    -5.6035495063    -5.7702161729    -4.6035495063    -1.6035495063    -0.2702161729    -0.9368828396    -2.4368828396    -4.9368828396    -5.7702161729    -4.2702161729    -3.9368828396    -4.4368828396    -4.4368828396    -4.1035495063    -3.7702161729    -2.6035495063    -1.2702161729     0.8964504937     3.3964504937     4.8964504937     6.5631171604     8.3964504937    12.2297838271    17.5631171604    21.7297838271    23.8964504937    23.7297838271    25.3964504937    27.7297838271    28.5631171604    29.5631171604    28.2297838271    27.3964504937    25.5631171604    22.3964504937    17.5631171604    14.8964504937    13.5631171604    11.8964504937     9.5631171604     7.3964504937     4.2297838271     2.5631171604     0.3964504937     0.8964504937     0.8964504937    -0.1035495063    -0.2702161729    -1.2702161729    -1.4368828396    -1.6035495063    -1.7702161729    -4.9368828396    -7.1035495063    -8.4368828396   -10.2702161729   -11.2702161729   -11.2702161729    -9.6035495063    -6.9368828396    -9.1035495063   -11.9368828396   -12.7702161729   -11.6035495063    -9.6035495063    -8.7702161729    -7.9368828396    -6.4368828396    -1.6035495063     3.7297838271     6.8964504937    10.5631171604    12.5631171604    17.5631171604    20.3964504937    21.2297838271    24.2297838271    29.5631171604    34.5631171604    38.7297838271    41.7297838271    41.7297838271    40.7297838271    39.5631171604    35.7297838271    30.8964504937    26.5631171604    22.2297838271    20.3964504937    16.5631171604    14.0631171604    13.3964504937     8.7297838271     6.5631171604     5.5631171604     5.5631171604     5.5631171604     6.8964504937     7.5631171604     8.0631171604     8.5631171604     9.7297838271    11.3964504937    12.8964504937    13.3964504937    11.5631171604     8.0631171604     4.3964504937     5.5631171604     3.3964504937    -1.6035495063    -8.7702161729   -15.2702161729   -16.4368828396   -15.4368828396   -15.7702161729   -15.9368828396   -15.9368828396   -16.1035495063   -15.6035495063   -16.6035495063   -15.9368828396   -12.7702161729    -9.9368828396    -9.9368828396    -9.4368828396    -8.1035495063    -4.4368828396     0.5631171604     1.8964504937     2.2297838271     2.7297838271     3.8964504937     5.5631171604     7.8964504937     7.8964504937     7.3964504937     5.3964504937     5.8964504937     6.5631171604     8.2297838271    10.0631171604    11.0631171604    11.0631171604     9.0631171604     6.2297838271     2.3964504937     2.3964504937     3.2297838271     2.0631171604    -0.7702161729    -0.8470776621     0.5760608487     3.3325326928     2.7556712036     1.6788097144     0.9352815586    -0.4749132639    -0.8851080865 
    9.8422881582    11.1951349906    14.0479818230    16.0674953221    15.9203421545    15.2731889869    16.2927024860    18.9788826517    18.1455493184    16.6455493184    16.1455493184    17.1455493184    18.6455493184    21.9788826517    24.8122159850    27.1455493184    28.1455493184    30.6455493184    30.6455493184    30.4788826517    30.4788826517    32.1455493184    32.1455493184    30.4788826517    28.8122159850    28.3122159850    28.1455493184    28.3122159850    28.1455493184    26.4788826517    26.1455493184    25.1455493184    24.8122159850    22.4788826517    19.6455493184    17.3122159850    16.8122159850    16.8122159850    17.6455493184    18.6455493184    19.1455493184    20.8122159850    23.3122159850    25.1455493184    25.8122159850    25.8122159850    26.1455493184    26.9788826517    26.1455493184    25.9788826517    25.1455493184    26.6455493184    30.1455493184    33.3122159850    35.4788826517    36.3122159850    38.6455493184    39.9788826517    38.8122159850    36.3122159850    33.8122159850    33.6455493184    33.3122159850    33.4788826517    33.3122159850    32.8122159850    35.6455493184    37.9788826517    37.1455493184    33.9788826517    31.3122159850    29.8122159850    28.1455493184    27.3122159850    26.4788826517    25.9788826517    26.8122159850    25.9788826517    24.1455493184    21.9788826517    20.8122159850    21.9788826517    23.3122159850    24.1455493184    23.9788826517    22.4788826517    21.6455493184    22.4788826517    23.9788826517    24.4788826517    26.4788826517    28.9788826517    28.1455493184    28.3122159850    29.3122159850    29.8122159850    31.8122159850    31.1455493184    28.3122159850    24.8122159850    24.4788826517    28.1455493184    31.9788826517    33.6455493184    34.6455493184    35.6455493184    36.8122159850    35.9788826517    36.6455493184    35.6455493184    35.9788826517    38.4788826517    40.6455493184    41.8122159850    42.3122159850    41.1455493184    39.9788826517    39.1455493184    37.1455493184    34.3122159850    31.6455493184    28.9788826517    24.9788826517    23.9788826517    24.1455493184    25.4788826517    27.3122159850    28.8122159850    29.8122159850    32.4788826517    35.3122159850    40.3122159850    46.1455493184    47.8122159850    45.6455493184    43.4788826517    42.3122159850    47.1455493184    45.6455493184    43.6455493184    43.8122159850    45.3122159850    44.8122159850    40.4788826517    35.4788826517    30.3122159850    28.4788826517    27.3122159850    21.6455493184    16.8122159850    17.8122159850    20.8122159850    22.4788826517    19.3122159850    23.8122159850    25.9788826517    26.6455493184    25.4788826517    23.9788826517    22.4788826517    21.9788826517    21.4788826517    19.3122159850    18.3122159850    13.8122159850     7.4788826517     1.8122159850    -1.0211173483    -5.0211173483   -13.1877840150   -19.1877840150   -23.1877840150   -21.3544506816   -28.3544506816   -42.6877840150   -62.1877840150   -79.8544506816   -93.6877840150  -108.0211173483  -130.3544506816  -147.6877840150  -189.6877840150  -230.3544506816  -260.5211173483  -288.6877840150  -345.8544506816  -405.8544506816  -431.6877840150  -476.0211173483  -469.5211173483  -465.3544506816  -439.6877840150  -431.3544506816  -453.8544506816  -436.5211173483  -383.8544506816  -319.6877840150  -227.5211173483  -113.3544506816   -29.3544506816    59.3122159850   156.1455493184   205.1455493184   172.1455493184   178.4788826517   197.3122159850   230.8122159850   250.8122159850   280.8122159850   355.4788826517   384.6455493184   341.8122159850   291.6455493184   268.8122159850   240.6455493184   232.1455493184   176.8122159850   112.1455493184   135.4788826517   239.8122159850   325.6455493184   361.9788826517   387.4788826517   402.6455493184   399.1455493184   366.9788826517   317.8122159850   286.8122159850   239.1455493184   199.4788826517   172.4788826517   135.8122159850   149.6455493184   215.9788826517   247.1455493184   236.3122159850   211.4788826517   165.1455493184   105.3122159850    74.3122159850    70.8122159850    84.1455493184   116.4788826517   170.4788826517   233.9788826517   254.9788826517   247.6455493184   251.8122159850   250.8122159850   229.3122159850   202.8122159850   183.4788826517   167.8122159850   170.6455493184   192.9788826517   196.8122159850   195.4788826517   187.4788826517   181.9788826517   177.1455493184   174.8122159850   181.4788826517   185.4788826517   186.3122159850   183.6455493184   179.1455493184   177.1455493184   179.6455493184   183.1455493184   182.6455493184   179.4788826517   174.3122159850   172.8122159850   169.1455493184   162.9788826517   158.8122159850   157.9788826517   155.4788826517   147.4788826517   135.3122159850   121.8122159850   112.1455493184   101.8122159850    90.8122159850    79.4788826517    69.1455493184    60.9788826517    53.1455493184    44.3122159850    38.9788826517    36.9788826517    35.6455493184    32.6455493184    28.9788826517    27.4788826517    25.9788826517    26.6455493184    25.3122159850    21.9788826517    15.8122159850    11.1455493184    10.3122159850    10.9788826517    12.3122159850    12.8122159850    14.9788826517    18.3122159850    20.6455493184    21.4788826517    21.4788826517    21.3122159850    24.1455493184    26.6455493184    29.4788826517    32.1455493184    34.6455493184    37.6455493184    38.9788826517    38.9788826517    38.9788826517    39.3122159850    38.1455493184    35.6455493184    32.3122159850    29.4788826517    29.6455493184    33.3122159850    36.1455493184    38.1455493184    40.4788826517    41.4788826517    41.9788826517    40.8122159850    41.1455493184    41.3122159850    41.6455493184    40.6455493184    40.4788826517    40.1455493184    39.6455493184    40.3122159850    39.4788826517    34.6455493184    29.8122159850    25.1455493184    20.1455493184    17.4788826517    17.9788826517    17.8122159850    15.4788826517    13.1455493184    10.6455493184     9.8122159850     5.9788826517     3.4788826517     3.3122159850     3.1455493184     3.6455493184     5.4788826517     6.9788826517     7.1455493184     7.8122159850     6.4788826517     2.9788826517    -0.3544506816    -2.8544506816    -5.3544506816    -8.0211173483   -11.0211173483   -13.3544506816   -14.5211173483   -16.3544506816   -19.1877840150   -24.5211173483   -29.3544506816   -32.6877840150   -35.1877840150   -38.0211173483   -39.5211173483   -41.6877840150   -42.5211173483   -42.1877840150   -40.5211173483   -39.3544506816   -41.5211173483   -42.0211173483   -42.0211173483   -42.0211173483   -41.3544506816   -39.8544506816   -37.0211173483   -34.3544506816   -30.3544506816   -27.1877840150   -25.6877840150   -23.1877840150   -20.5211173483   -19.3544506816   -19.8544506816   -20.6877840150   -20.5211173483   -19.5211173483   -17.8544506816   -16.6877840150   -16.5211173483   -16.1877840150   -17.6877840150   -19.8544506816   -23.6877840150   -27.0211173483   -27.1877840150   -27.0211173483   -26.6877840150   -27.5211173483   -28.8544506816   -29.5211173483   -29.5211173483   -31.3544506816   -36.3544506816   -42.0211173483   -47.5211173483   -51.8544506816   -54.6877840150   -59.6877840150   -65.1877840150   -67.6877840150   -69.8544506816   -71.8544506816   -76.5211173483   -81.0211173483   -84.8544506816   -87.1877840150   -88.1877840150   -89.3544506816   -91.1877840150   -94.6877840150   -94.1877840150   -93.3544506816   -93.5211173483   -93.0211173483   -91.3544506816   -90.5211173483   -90.3544506816   -91.1877840150   -89.5211173483   -86.5211173483   -81.5211173483   -78.6877840150   -77.6877840150   -75.3544506816   -73.1877840150   -69.0211173483   -66.6877840150   -64.1877840150   -61.0211173483   -57.5211173483   -54.6877840150   -52.6877840150   -54.0211173483   -56.5211173483   -60.3544506816   -64.6877840150   -70.5211173483   -74.8544506816   -77.1877840150   -80.6877840150   -81.6877840150   -82.0211173483   -84.1877840150   -88.5211173483   -92.1877840150   -94.3544506816   -96.5211173483   -93.8739641807   -88.8934776798   -82.4129911788   -75.0991713446   -67.7853515103   -60.3048650094   -52.8243785084   -46.0105586742 
   30.6098439376    35.4553821529    40.3009203682    45.4797919168    50.1586634654    52.1708683474    54.5164065626    59.5286114446    62.0286114446    63.6952781113    66.1952781113    69.3619447779    73.3619447779    76.1952781113    77.3619447779    78.3619447779    79.6952781113    81.5286114446    83.1952781113    82.3619447779    81.0286114446    84.0286114446    87.5286114446    88.6952781113    88.5286114446    88.5286114446    88.1952781113    86.3619447779    83.5286114446    80.1952781113    77.1952781113    75.1952781113    72.3619447779    68.3619447779    63.8619447779    61.3619447779    59.6952781113    56.8619447779    52.3619447779    47.3619447779    41.0286114446    36.3619447779    34.3619447779    34.0286114446    32.5286114446    30.8619447779    31.0286114446    32.3619447779    35.8619447779    38.5286114446    41.3619447779    45.3619447779    49.8619447779    52.0286114446    53.1952781113    54.0286114446    56.5286114446    59.5286114446    61.0286114446    62.5286114446    64.5286114446    67.8619447779    68.5286114446    67.3619447779    64.0286114446    61.8619447779    60.8619447779    60.5286114446    61.3619447779    61.8619447779    63.0286114446    65.8619447779    69.6952781113    70.0286114446    67.5286114446    64.5286114446    60.5286114446    56.5286114446    54.6952781113    51.0286114446    47.1952781113    43.0286114446    39.5286114446    33.8619447779    27.0286114446    22.1952781113    19.3619447779    17.0286114446    12.6952781113    10.8619447779    10.6952781113    10.1952781113    11.6952781113    11.8619447779    11.0286114446    14.1952781113    18.3619447779    23.8619447779    28.3619447779    30.5286114446    31.5286114446    32.0286114446    33.0286114446    31.1952781113    31.5286114446    32.1952781113    33.6952781113    35.8619447779    37.8619447779    39.0286114446    40.5286114446    39.8619447779    38.6952781113    36.6952781113    34.1952781113    33.3619447779    33.3619447779    35.0286114446    34.3619447779    34.3619447779    33.0286114446    33.5286114446    33.6952781113    33.1952781113    29.5286114446    26.0286114446    21.6952781113    19.5286114446    19.8619447779    18.3619447779    15.6952781113    14.6952781113    13.0286114446    11.6952781113    11.3619447779    10.8619447779    11.0286114446    10.0286114446     9.1952781113     5.5286114446     2.1952781113     2.0286114446     3.8619447779     3.8619447779     0.1952781113    -2.1380552221    -2.1380552221    -1.4713885554     1.5286114446     2.0286114446     1.3619447779     0.6952781113     1.0286114446     0.1952781113    -5.9713885554   -13.6380552221   -12.9713885554   -12.1380552221   -21.3047218887   -29.3047218887   -34.1380552221   -35.4713885554   -41.3047218887   -56.6380552221   -72.9713885554   -89.8047218887  -104.6380552221  -109.9713885554  -118.9713885554  -127.9713885554  -125.9713885554  -117.3047218887  -121.6380552221  -131.8047218887  -136.3047218887  -154.3047218887  -174.6380552221  -178.1380552221  -179.1380552221  -199.4713885554  -226.8047218887  -253.9713885554  -240.8047218887  -229.3047218887  -230.9713885554  -270.6380552221  -335.9713885554  -388.9713885554  -458.9713885554  -571.8047218887  -673.3047218887  -632.1380552221  -568.6380552221  -533.4713885554  -478.8047218887  -357.1380552221  -219.3047218887   -77.4713885554   -20.9713885554    -3.8047218887    17.5286114446    66.3619447779   118.0286114446   219.0286114446   358.8619447779   526.3619447779   645.8619447779   542.1952781113   413.6952781113   368.6952781113   353.3619447779   328.8619447779   302.8619447779   251.3619447779   190.5286114446   188.3619447779   207.5286114446   209.0286114446   198.0286114446   146.5286114446   101.0286114446    82.1952781113    83.5286114446   164.3619447779   268.0286114446   306.0286114446   293.8619447779   246.0286114446   185.8619447779   144.6952781113   149.0286114446   127.0286114446   102.5286114446   107.6952781113   142.6952781113   154.6952781113   143.5286114446   122.3619447779   121.0286114446   134.3619447779   128.3619447779   113.3619447779   102.5286114446    98.6952781113   102.6952781113   108.5286114446   119.6952781113   131.3619447779   135.8619447779   137.1952781113   138.8619447779   141.1952781113   144.6952781113   148.3619447779   150.3619447779   146.0286114446   145.1952781113   145.1952781113   141.6952781113   136.0286114446   123.6952781113   112.3619447779   101.8619447779    91.0286114446    83.0286114446    77.0286114446    70.8619447779    66.8619447779    63.8619447779    59.8619447779    55.0286114446    53.1952781113    46.8619447779    37.1952781113    27.5286114446    19.6952781113    15.1952781113    12.5286114446    12.1952781113    10.5286114446     5.3619447779     0.3619447779    -3.4713885554    -9.9713885554   -16.4713885554   -19.9713885554   -21.9713885554   -21.9713885554   -20.9713885554   -20.3047218887   -19.9713885554   -20.6380552221   -18.4713885554   -16.3047218887   -16.3047218887   -15.9713885554   -15.1380552221   -15.4713885554   -15.1380552221   -16.6380552221   -20.4713885554   -22.9713885554   -24.6380552221   -26.3047218887   -30.9713885554   -33.1380552221   -32.6380552221   -30.3047218887   -31.3047218887   -32.6380552221   -30.6380552221   -28.6380552221   -24.6380552221   -20.3047218887   -19.3047218887   -19.1380552221   -16.8047218887   -14.6380552221   -15.6380552221   -19.1380552221   -21.9713885554   -26.6380552221   -29.8047218887   -33.8047218887   -37.8047218887   -41.9713885554   -47.6380552221   -53.3047218887   -61.8047218887   -70.3047218887   -77.6380552221   -82.9713885554   -87.8047218887   -93.3047218887   -95.3047218887   -94.4713885554   -91.4713885554   -86.6380552221   -84.4713885554   -83.4713885554   -83.3047218887   -83.3047218887   -83.1380552221   -82.6380552221   -79.9713885554   -77.1380552221   -74.8047218887   -71.3047218887   -67.3047218887   -65.4713885554   -65.4713885554   -65.3047218887   -65.1380552221   -63.8047218887   -63.8047218887   -64.4713885554   -62.6380552221   -58.4713885554   -55.4713885554   -53.4713885554   -54.1380552221   -54.1380552221   -53.3047218887   -53.8047218887   -55.4713885554   -55.8047218887   -55.1380552221   -54.1380552221   -52.8047218887   -54.4713885554   -53.4713885554   -50.8047218887   -48.8047218887   -49.3047218887   -50.9713885554   -51.1380552221   -49.6380552221   -48.4713885554   -48.8047218887   -47.8047218887   -46.8047218887   -46.3047218887   -44.9713885554   -44.9713885554   -46.6380552221   -47.3047218887   -48.4713885554   -50.1380552221   -51.8047218887   -55.3047218887   -59.4713885554   -63.4713885554   -66.3047218887   -68.4713885554   -70.6380552221   -74.8047218887   -78.3047218887   -80.9713885554   -86.1380552221   -92.1380552221   -97.9713885554  -102.1380552221  -104.6380552221  -106.3047218887  -109.8047218887  -112.4713885554  -110.9713885554  -109.9713885554  -110.8047218887  -113.1380552221  -115.8047218887  -116.1380552221  -116.1380552221  -115.9713885554  -113.8047218887  -108.3047218887  -100.8047218887   -94.3047218887   -90.8047218887   -88.8047218887   -86.6380552221   -83.3047218887   -82.3047218887   -80.8047218887   -78.3047218887   -74.1380552221   -69.3047218887   -66.3047218887   -63.4713885554   -60.9713885554   -58.8047218887   -58.3047218887   -58.6380552221   -59.4713885554   -60.4713885554   -61.9713885554   -61.6380552221   -61.1380552221   -61.6380552221   -62.8047218887   -63.8047218887   -66.6380552221   -68.9713885554   -69.9713885554   -72.3047218887   -74.9713885554   -77.1380552221   -78.8047218887   -81.4713885554   -83.6380552221   -85.6380552221   -85.9713885554   -87.8047218887   -89.9713885554   -91.6380552221   -92.8047218887   -94.8047218887   -95.6380552221   -97.1380552221   -98.4713885554   -99.1380552221   -98.1380552221   -96.3047218887   -96.4713885554   -96.8047218887   -97.9713885554   -96.8047218887   -95.8047218887   -94.8047218887   -93.8047218887   -91.8047218887   -89.6380552221   -88.8047218887   -82.1502601040   -74.9957983193   -69.0080032013   -63.1868747499   -58.3657462985   -54.3779511805   -48.8901560624   -42.2356942777 
    5.6251668001     7.6575927409     8.8566853483    10.8891112890    12.0882038964    11.7872965039    10.6530557779     8.6854817187     4.0188150520    -0.8145182813    -1.6478516146    -1.3145182813    -2.8145182813    -4.9811849480    -6.9811849480    -8.4811849480    -9.6478516146   -12.3145182813   -13.1478516146   -15.9811849480   -17.8145182813   -17.6478516146   -14.1478516146    -9.9811849480    -7.9811849480    -6.3145182813    -7.1478516146    -8.4811849480    -9.4811849480    -9.3145182813    -9.4811849480    -9.9811849480   -10.6478516146   -10.3145182813   -12.9811849480   -16.1478516146   -19.4811849480   -21.6478516146   -26.8145182813   -31.1478516146   -32.1478516146   -31.8145182813   -30.3145182813   -28.9811849480   -27.9811849480   -28.1478516146   -26.6478516146   -24.6478516146   -24.8145182813   -27.6478516146   -29.9811849480   -28.9811849480   -29.1478516146   -32.6478516146   -35.9811849480   -38.6478516146   -41.4811849480   -43.9811849480   -45.6478516146   -47.6478516146   -50.8145182813   -52.1478516146   -52.6478516146   -53.3145182813   -53.6478516146   -52.6478516146   -49.6478516146   -49.6478516146   -48.6478516146   -47.3145182813   -45.8145182813   -43.3145182813   -42.9811849480   -45.1478516146   -49.4811849480   -54.1478516146   -56.9811849480   -59.4811849480   -63.3145182813   -67.1478516146   -70.3145182813   -70.8145182813   -71.9811849480   -72.3145182813   -74.3145182813   -76.6478516146   -78.6478516146   -81.4811849480   -84.1478516146   -84.4811849480   -82.9811849480   -78.9811849480   -74.4811849480   -73.1478516146   -74.1478516146   -76.9811849480   -80.6478516146   -82.4811849480   -83.8145182813   -84.6478516146   -84.6478516146   -82.6478516146   -80.8145182813   -80.9811849480   -79.1478516146   -79.1478516146   -79.1478516146   -80.4811849480   -84.1478516146   -87.4811849480   -87.1478516146   -84.4811849480   -79.9811849480   -80.3145182813   -82.1478516146   -83.4811849480   -84.9811849480   -86.6478516146   -88.9811849480   -91.6478516146   -94.1478516146   -95.1478516146   -97.1478516146   -99.1478516146   -99.9811849480   -99.3145182813  -100.4811849480  -101.3145182813  -104.6478516146  -106.9811849480  -108.1478516146  -108.9811849480  -109.1478516146  -108.9811849480  -109.9811849480  -111.9811849480  -115.6478516146  -118.8145182813  -121.4811849480  -124.1478516146  -127.3145182813  -130.4811849480  -132.3145182813  -135.3145182813  -138.9811849480  -143.3145182813  -146.8145182813  -150.3145182813  -152.9811849480  -155.3145182813  -156.9811849480  -154.1478516146  -149.4811849480  -145.8145182813  -144.4811849480  -143.3145182813  -142.3145182813  -141.1478516146  -141.9811849480  -141.8145182813  -137.8145182813  -133.6478516146  -131.3145182813  -131.8145182813  -134.6478516146  -136.9811849480  -139.1478516146  -143.9811849480  -149.8145182813  -155.8145182813  -160.9811849480  -165.1478516146  -168.9811849480  -172.9811849480  -174.9811849480  -177.9811849480  -181.3145182813  -182.1478516146  -183.1478516146  -182.9811849480  -188.1478516146  -200.1478516146  -202.8145182813  -204.9811849480  -203.6478516146  -209.9811849480  -223.1478516146  -240.8145182813  -277.8145182813  -310.4811849480  -339.3145182813  -385.9811849480  -445.4811849480  -492.4811849480  -530.4811849480  -598.9811849480  -669.9811849480  -677.3145182813  -701.9811849480  -677.1478516146  -624.9811849480  -617.3145182813  -606.6478516146  -559.8145182813  -537.6478516146  -529.8145182813  -505.3145182813  -477.6478516146  -455.4811849480  -430.4811849480  -354.3145182813  -236.9811849480   -84.8145182813     2.6854817187    92.6854817187   132.0188150520   112.5188150520   144.8521483854   128.0188150520    50.5188150520    83.0188150520   119.6854817187    88.5188150520   120.6854817187   182.3521483854   210.1854817187   207.8521483854   191.0188150520   146.5188150520    99.0188150520    54.5188150520    -1.4811849480   -29.3145182813   -71.8145182813   -36.1478516146     0.8521483854     4.5188150520    30.6854817187   115.6854817187   148.8521483854   174.6854817187   205.3521483854   204.6854817187   188.6854817187   174.5188150520   169.0188150520   170.1854817187   180.8521483854   191.6854817187   210.0188150520   208.3521483854   238.5188150520   234.3521483854   210.8521483854   177.0188150520   145.5188150520   109.5188150520    76.6854817187    50.6854817187    42.5188150520    32.6854817187    27.3521483854    27.8521483854    34.0188150520    37.0188150520    46.8521483854    50.0188150520    44.1854817187    38.5188150520    32.8521483854    24.8521483854    17.1854817187     5.6854817187     0.6854817187    -6.1478516146    -9.4811849480   -10.6478516146   -15.9811849480   -32.3145182813   -52.8145182813   -70.4811849480   -87.1478516146  -100.4811849480  -110.3145182813  -117.9811849480  -122.6478516146  -126.8145182813  -128.8145182813  -129.9811849480  -130.9811849480  -135.1478516146  -143.1478516146  -151.6478516146  -159.8145182813  -164.1478516146  -166.4811849480  -168.1478516146  -169.4811849480  -172.4811849480  -176.6478516146  -180.8145182813  -182.9811849480  -183.9811849480  -186.4811849480  -187.8145182813  -189.8145182813  -190.1478516146  -186.9811849480  -183.4811849480  -179.6478516146  -177.8145182813  -175.6478516146  -173.3145182813  -170.4811849480  -167.9811849480  -165.8145182813  -163.6478516146  -162.9811849480  -164.6478516146  -165.1478516146  -164.6478516146  -161.1478516146  -158.3145182813  -156.1478516146  -154.8145182813  -154.8145182813  -152.8145182813  -151.1478516146  -151.4811849480  -152.4811849480  -153.1478516146  -152.4811849480  -151.4811849480  -150.8145182813  -148.9811849480  -148.9811849480  -149.1478516146  -148.9811849480  -150.3145182813  -151.8145182813  -153.3145182813  -153.3145182813  -154.3145182813  -155.4811849480  -155.9811849480  -156.6478516146  -156.3145182813  -153.3145182813  -150.6478516146  -148.8145182813  -147.6478516146  -145.6478516146  -143.1478516146  -141.9811849480  -141.1478516146  -139.9811849480  -137.8145182813  -135.6478516146  -133.3145182813  -131.3145182813  -128.8145182813  -125.8145182813  -123.3145182813  -124.6478516146  -127.6478516146  -130.4811849480  -132.3145182813  -134.1478516146  -136.3145182813  -137.4811849480  -136.4811849480  -135.6478516146  -132.6478516146  -131.9811849480  -132.8145182813  -132.3145182813  -130.4811849480  -127.9811849480  -126.1478516146  -124.6478516146  -121.1478516146  -117.3145182813  -114.3145182813  -111.3145182813  -109.4811849480  -107.9811849480  -106.4811849480  -105.4811849480  -107.8145182813  -109.3145182813  -112.4811849480  -114.6478516146  -115.8145182813  -118.8145182813  -123.3145182813  -126.3145182813  -128.3145182813  -129.1478516146  -129.3145182813  -131.4811849480  -132.9811849480  -134.4811849480  -136.4811849480  -137.9811849480  -140.3145182813  -141.3145182813  -138.3145182813  -136.9811849480  -138.6478516146  -141.9811849480  -143.1478516146  -143.8145182813  -145.9811849480  -148.6478516146  -151.6478516146  -152.1478516146  -150.8145182813  -148.1478516146  -146.8145182813  -145.9811849480  -143.8145182813  -140.9811849480  -140.1478516146  -139.3145182813  -136.8145182813  -132.4811849480  -127.3145182813  -122.9811849480  -117.4811849480  -112.3145182813  -107.8145182813  -103.6478516146  -101.6478516146  -102.9811849480  -102.8145182813  -103.9811849480  -103.8145182813  -104.1478516146  -104.9811849480  -107.6478516146  -110.8145182813  -113.4811849480  -115.3145182813  -116.3145182813  -118.6478516146  -120.6478516146  -120.6478516146  -119.6478516146  -117.4811849480  -115.1478516146  -113.3145182813  -109.4811849480  -106.6478516146  -104.6478516146  -103.3145182813  -100.8145182813   -98.9811849480   -97.8145182813   -98.8145182813  -100.6478516146  -102.9811849480  -104.6478516146  -105.3145182813  -107.3145182813  -111.1478516146  -114.8145182813  -117.9811849480  -120.3145182813  -121.6478516146  -121.8145182813  -119.9811849480  -117.8145182813  -114.4811849480  -106.6802775554   -98.0460368295   -89.0784627702   -79.1108887110   -70.8099813184   -64.8424072591   -58.7081665332   -51.4072591406 
   29.9474739375    32.6638599305    35.3802459236    39.5966319166    42.9796845763    46.3627372360    49.0791232291    50.2955092221    49.4621758888    48.7955092221    47.4621758888    44.2955092221    40.7955092221    37.6288425555    34.7955092221    31.4621758888    28.4621758888    26.2955092221    24.9621758888    21.7955092221    20.6288425555    19.1288425555    17.1288425555    18.7955092221    21.1288425555    22.1288425555    22.6288425555    24.6288425555    26.1288425555    26.6288425555    25.1288425555    25.9621758888    26.2955092221    26.6288425555    27.2955092221    28.6288425555    28.1288425555    26.9621758888    27.4621758888    26.4621758888    24.7955092221    23.1288425555    22.1288425555    21.6288425555    23.1288425555    25.9621758888    28.4621758888    26.9621758888    25.7955092221    25.1288425555    23.7955092221    21.1288425555    18.4621758888    16.9621758888    15.4621758888    12.7955092221     8.6288425555     4.2955092221     1.2955092221    -0.2044907779    -2.5378241112    -5.7044907779    -6.3711574445    -6.2044907779    -4.3711574445    -3.5378241112    -4.2044907779    -4.5378241112    -3.2044907779    -0.0378241112     2.6288425555     3.6288425555     5.9621758888     9.9621758888    13.2955092221    15.4621758888    15.1288425555    12.6288425555    10.2955092221    11.1288425555    10.6288425555     8.9621758888     5.4621758888     2.1288425555     0.6288425555    -3.2044907779    -6.0378241112    -6.3711574445    -5.8711574445    -5.5378241112    -6.0378241112    -8.7044907779    -8.2044907779    -4.5378241112    -0.5378241112     1.4621758888     3.1288425555     4.1288425555     7.6288425555    12.2955092221    13.4621758888    11.7955092221    10.1288425555    10.7955092221     9.9621758888     8.6288425555     7.9621758888     8.4621758888     9.9621758888    10.6288425555     9.2955092221     6.6288425555     4.9621758888     6.6288425555    10.2955092221    12.4621758888    13.6288425555    17.4621758888    20.4621758888    20.6288425555    19.9621758888    17.4621758888    15.6288425555    15.9621758888    14.9621758888    12.2955092221    10.1288425555     5.1288425555     2.6288425555     1.1288425555    -1.0378241112    -6.3711574445   -11.3711574445   -16.0378241112   -20.0378241112   -22.8711574445   -22.2044907779   -19.8711574445   -19.0378241112   -19.7044907779   -22.0378241112   -20.7044907779   -20.5378241112   -14.8711574445   -10.7044907779   -10.0378241112   -16.3711574445   -16.5378241112   -12.7044907779   -12.3711574445   -10.7044907779    -8.5378241112   -11.8711574445   -14.3711574445   -15.0378241112   -14.7044907779   -13.3711574445   -16.7044907779   -17.7044907779   -23.2044907779   -34.5378241112   -48.3711574445   -63.0378241112   -77.0378241112  -105.2044907779  -121.7044907779  -138.2044907779  -158.0378241112  -163.0378241112  -183.2044907779  -192.0378241112  -234.3711574445  -290.8711574445  -342.3711574445  -394.0378241112  -431.7044907779  -446.7044907779  -442.7044907779  -420.5378241112  -370.7044907779  -313.7044907779  -281.0378241112  -254.2044907779  -224.2044907779  -258.7044907779  -303.7044907779  -335.7044907779  -243.2044907779   -88.3711574445    60.7955092221   140.7955092221   114.7955092221   104.9621758888   141.9621758888   197.7955092221   205.9621758888   204.2955092221   190.1288425555   153.1288425555    68.9621758888    23.9621758888    64.4621758888    97.6288425555    82.1288425555    38.7955092221    -5.7044907779    33.1288425555   125.6288425555   177.9621758888   181.7955092221   153.6288425555   147.1288425555   151.4621758888   162.2955092221   157.4621758888   201.7955092221   294.2955092221   353.9621758888   402.2955092221   402.9621758888   377.4621758888   336.7955092221   266.6288425555   245.4621758888   242.9621758888   222.9621758888   207.2955092221   190.6288425555   174.2955092221   174.7955092221   214.1288425555   245.1288425555   241.7955092221   215.7955092221   182.2955092221   153.2955092221   128.2955092221   123.4621758888   136.6288425555   143.4621758888   137.6288425555   136.4621758888   131.2955092221   118.7955092221   106.4621758888   101.4621758888   101.6288425555   108.6288425555   114.7955092221   113.6288425555   112.4621758888   111.1288425555   108.2955092221   102.6288425555    93.2955092221    79.9621758888    65.6288425555    50.7955092221    36.9621758888    26.1288425555    16.7955092221     6.9621758888    -6.3711574445   -21.0378241112   -34.0378241112   -43.0378241112   -51.2044907779   -60.3711574445   -67.3711574445   -70.3711574445   -71.7044907779   -68.7044907779   -66.3711574445   -64.8711574445   -61.7044907779   -57.3711574445   -52.8711574445   -50.8711574445   -48.2044907779   -46.8711574445   -46.8711574445   -49.7044907779   -53.2044907779   -54.5378241112   -53.0378241112   -53.0378241112   -53.8711574445   -55.3711574445   -54.8711574445   -51.0378241112   -47.2044907779   -41.7044907779   -36.2044907779   -26.7044907779   -15.3711574445    -4.0378241112     6.2955092221    16.1288425555    25.6288425555    34.1288425555    42.1288425555    49.9621758888    54.6288425555    58.4621758888    64.6288425555    67.6288425555    68.1288425555    65.7955092221    64.6288425555    59.2955092221    53.4621758888    48.4621758888    44.1288425555    42.7955092221    43.4621758888    44.9621758888    44.7955092221    44.1288425555    45.1288425555    46.7955092221    44.7955092221    41.6288425555    39.6288425555    37.9621758888    37.9621758888    39.6288425555    41.6288425555    42.1288425555    44.6288425555    46.9621758888    46.7955092221    43.7955092221    40.9621758888    39.9621758888    41.2955092221    42.1288425555    42.2955092221    41.6288425555    39.9621758888    40.9621758888    38.4621758888    34.2955092221    28.2955092221    24.2955092221    18.6288425555    10.9621758888     3.7955092221    -0.2044907779    -1.5378241112    -2.2044907779    -4.5378241112    -8.8711574445   -11.3711574445   -12.3711574445   -12.3711574445   -14.7044907779   -14.8711574445   -15.0378241112   -13.7044907779   -12.8711574445   -12.8711574445   -13.2044907779   -13.3711574445   -14.2044907779   -16.0378241112   -21.0378241112   -25.7044907779   -28.7044907779   -31.5378241112   -33.3711574445   -34.5378241112   -35.5378241112   -36.5378241112   -35.7044907779   -34.7044907779   -34.8711574445   -33.2044907779   -29.2044907779   -24.8711574445   -20.7044907779   -17.5378241112   -13.8711574445   -10.8711574445    -8.5378241112    -5.7044907779    -4.2044907779    -5.8711574445    -6.8711574445    -7.8711574445   -10.2044907779   -15.2044907779   -18.8711574445   -22.5378241112   -26.7044907779   -28.5378241112   -30.5378241112   -32.7044907779   -35.0378241112   -35.3711574445   -35.0378241112   -35.5378241112   -35.5378241112   -32.8711574445   -31.0378241112   -29.0378241112   -25.3711574445   -20.3711574445   -17.0378241112   -15.3711574445   -14.7044907779   -14.8711574445   -16.3711574445   -18.2044907779   -18.5378241112   -18.7044907779   -18.7044907779   -19.3711574445   -21.2044907779   -24.8711574445   -25.0378241112   -23.5378241112   -23.7044907779   -23.3711574445   -22.3711574445   -21.0378241112   -18.3711574445   -18.2044907779   -17.0378241112   -14.5378241112   -14.0378241112   -16.0378241112   -18.7044907779   -20.7044907779   -22.5378241112   -19.7044907779   -18.8711574445   -21.2044907779   -23.2044907779   -24.3711574445   -26.2044907779   -27.8711574445   -31.3711574445   -34.2044907779   -37.7044907779   -40.8711574445   -43.2044907779   -44.5378241112   -44.7044907779   -44.0378241112   -41.0378241112   -41.8711574445   -45.3711574445   -48.8711574445   -51.3711574445   -53.3711574445   -53.0378241112   -52.3711574445   -51.0378241112   -48.8711574445   -45.8711574445   -42.5378241112   -39.7044907779   -38.2044907779   -39.0378241112   -39.2044907779   -39.2044907779   -39.5378241112   -36.3711574445   -30.5378241112   -25.7044907779   -22.7044907779   -21.5378241112   -18.7044907779   -16.2542101042   -13.9705960973   -11.8536487570   -11.4033680834   -10.6197540764    -8.8361400695    -5.2191927292    -3.1022453889 
  -24.9535628503   -28.0595142781   -31.4987990392   -34.9380838004   -36.8773685615   -38.3166533227   -38.9226047505   -41.1952228449   -41.3618895116   -41.5285561783   -41.3618895116   -41.5285561783   -43.8618895116   -46.5285561783   -46.5285561783   -45.0285561783   -44.3618895116   -43.5285561783   -43.3618895116   -43.3618895116   -43.8618895116   -43.6952228449   -45.5285561783   -46.5285561783   -48.1952228449   -50.0285561783   -50.1952228449   -49.3618895116   -47.8618895116   -45.3618895116   -42.0285561783   -38.0285561783   -34.5285561783   -32.1952228449   -29.3618895116   -24.1952228449   -19.0285561783   -15.1952228449   -11.6952228449    -8.3618895116    -3.1952228449     3.3047771551     9.4714438217    13.4714438217    17.1381104884    19.3047771551    19.9714438217    17.6381104884    15.3047771551    14.9714438217    15.9714438217    14.9714438217    12.8047771551     8.9714438217     6.4714438217     5.6381104884     5.4714438217     5.4714438217     3.6381104884     3.4714438217     3.4714438217     4.9714438217     5.8047771551     6.6381104884     7.3047771551     6.3047771551     4.9714438217     2.9714438217     1.6381104884     1.9714438217     3.9714438217     5.3047771551     4.4714438217     1.8047771551     0.1381104884    -0.8618895116    -2.3618895116    -5.8618895116    -7.8618895116    -8.3618895116    -8.3618895116    -6.8618895116    -8.1952228449   -10.0285561783    -9.8618895116    -7.3618895116    -8.1952228449    -8.6952228449    -8.1952228449    -6.3618895116    -4.1952228449    -3.3618895116    -2.8618895116    -2.8618895116    -3.1952228449    -2.8618895116    -3.1952228449    -4.1952228449    -3.6952228449    -3.8618895116    -5.3618895116    -8.1952228449    -9.5285561783   -11.8618895116   -13.5285561783   -12.5285561783   -12.0285561783   -13.0285561783   -12.3618895116    -8.5285561783    -5.1952228449    -1.5285561783     2.4714438217     5.3047771551     8.4714438217    12.4714438217    15.8047771551    17.6381104884    19.3047771551    20.6381104884    19.4714438217    14.8047771551     9.9714438217     6.4714438217     3.9714438217     1.1381104884    -4.6952228449   -13.1952228449   -16.6952228449   -16.1952228449   -14.0285561783    -9.6952228449    -6.3618895116    -2.6952228449    -0.3618895116    -1.3618895116    -0.8618895116     3.3047771551     5.9714438217     9.9714438217    13.9714438217    16.8047771551    19.3047771551    23.1381104884    24.4714438217    21.1381104884    15.3047771551     5.8047771551    -9.0285561783   -28.3618895116   -34.8618895116   -34.1952228449   -34.3618895116   -37.5285561783   -36.8618895116   -35.8618895116   -35.8618895116   -36.3618895116   -38.1952228449   -43.1952228449   -56.6952228449   -58.8618895116   -73.0285561783   -96.5285561783  -109.3618895116  -103.0285561783   -93.3618895116   -88.3618895116  -105.5285561783  -134.5285561783  -177.5285561783  -224.5285561783  -257.0285561783  -270.8618895116  -304.1952228449  -341.1952228449  -342.3618895116  -325.0285561783  -289.6952228449  -293.1952228449  -299.6952228449  -291.0285561783  -277.1952228449  -252.8618895116  -192.8618895116  -113.0285561783    -9.6952228449   111.8047771551   141.1381104884   105.4714438217   121.9714438217   206.8047771551   283.3047771551   316.4714438217   330.4714438217   396.8047771551   441.1381104884   455.9714438217   450.6381104884   390.9714438217   286.3047771551   211.8047771551   147.6381104884   116.8047771551   179.9714438217   278.8047771551   347.8047771551   314.3047771551   227.8047771551   188.8047771551   173.9714438217   179.4714438217   208.4714438217   232.8047771551   253.9714438217   309.3047771551   389.9714438217   415.3047771551   418.1381104884   384.1381104884   327.9714438217   283.6381104884   230.9714438217   211.6381104884   241.3047771551   251.4714438217   248.9714438217   221.4714438217   187.9714438217   160.4714438217   135.1381104884   121.3047771551   109.3047771551   117.1381104884   126.3047771551   118.1381104884   117.1381104884   118.4714438217   129.9714438217   147.9714438217   146.6381104884   130.1381104884   113.9714438217   105.1381104884   103.8047771551    92.6381104884    78.1381104884    68.1381104884    67.1381104884    63.9714438217    59.1381104884    56.6381104884    48.4714438217    39.4714438217    33.8047771551    31.4714438217    29.6381104884    27.3047771551    26.1381104884    19.9714438217     8.6381104884     5.4714438217     4.1381104884    -4.5285561783   -15.6952228449   -27.3618895116   -36.5285561783   -42.5285561783   -47.8618895116   -54.3618895116   -63.3618895116   -72.6952228449   -78.8618895116   -82.0285561783   -82.8618895116   -83.5285561783   -81.6952228449   -79.0285561783   -72.3618895116   -61.8618895116   -52.1952228449   -41.0285561783   -31.8618895116   -25.3618895116   -17.6952228449   -10.5285561783    -0.1952228449     9.8047771551    17.6381104884    21.8047771551    24.9714438217    28.1381104884    28.8047771551    26.9714438217    23.4714438217    18.6381104884    14.1381104884     9.8047771551     6.8047771551     4.9714438217     6.3047771551     7.3047771551     4.4714438217     0.1381104884    -4.0285561783    -4.8618895116    -5.3618895116    -6.0285561783    -5.8618895116    -2.1952228449     3.1381104884     7.4714438217     8.6381104884     7.1381104884     6.4714438217     7.4714438217     8.1381104884     8.3047771551     8.3047771551     9.4714438217    10.6381104884    10.9714438217     9.8047771551     8.9714438217     7.4714438217     5.8047771551     4.8047771551     4.6381104884     6.4714438217     9.3047771551    10.6381104884    10.6381104884     9.9714438217     8.4714438217     6.8047771551     4.6381104884     0.3047771551    -1.8618895116    -2.6952228449    -3.0285561783    -2.5285561783    -2.8618895116    -5.8618895116   -10.1952228449   -13.6952228449   -16.8618895116   -19.8618895116   -21.3618895116   -23.6952228449   -23.8618895116   -23.5285561783   -23.8618895116   -21.1952228449   -21.8618895116   -23.0285561783   -23.3618895116   -23.8618895116   -24.3618895116   -23.8618895116   -20.6952228449   -17.6952228449   -15.8618895116   -15.6952228449   -17.3618895116   -19.3618895116   -22.5285561783   -24.6952228449   -26.3618895116   -29.5285561783   -32.5285561783   -34.6952228449   -35.8618895116   -36.8618895116   -38.5285561783   -40.5285561783   -42.3618895116   -44.3618895116   -47.0285561783   -50.5285561783   -53.1952228449   -54.0285561783   -52.1952228449   -51.3618895116   -51.6952228449   -52.3618895116   -50.3618895116   -47.8618895116   -47.8618895116   -48.8618895116   -49.5285561783   -48.0285561783   -45.5285561783   -43.6952228449   -42.1952228449   -39.3618895116   -35.1952228449   -30.1952228449   -27.5285561783   -27.6952228449   -27.5285561783   -25.5285561783   -24.0285561783   -22.3618895116   -20.1952228449   -18.5285561783   -16.3618895116   -15.8618895116   -17.6952228449   -19.0285561783   -19.8618895116   -19.3618895116   -20.3618895116   -25.3618895116   -30.3618895116   -33.1952228449   -34.5285561783   -35.8618895116   -36.6952228449   -39.1952228449   -43.1952228449   -44.8618895116   -44.1952228449   -43.5285561783   -44.6952228449   -47.1952228449   -47.8618895116   -49.3618895116   -50.5285561783   -51.1952228449   -51.3618895116   -48.6952228449   -45.5285561783   -45.1952228449   -46.8618895116   -46.1952228449   -41.5285561783   -37.3618895116   -36.5285561783   -38.0285561783   -38.3618895116   -36.8618895116   -33.8618895116   -30.8618895116   -28.0285561783   -24.1952228449   -18.8618895116   -16.8618895116   -17.3618895116   -16.6952228449   -13.5285561783   -11.1952228449   -12.0285561783   -14.1952228449   -17.0285561783   -19.0285561783   -21.1952228449   -22.0285561783   -24.3618895116   -26.8618895116   -30.3618895116   -32.3618895116   -35.8618895116   -38.8618895116   -41.8618895116   -45.3618895116   -48.8618895116   -51.5285561783   -52.1952228449   -52.1952228449   -51.3618895116   -49.6952228449   -46.5285561783   -46.6952228449   -44.4226047505   -41.9833199893   -38.2107018948   -35.2714171337   -32.8321323726   -29.5595142781   -24.7868961836   -19.0142780891 
  -14.2447291166   -14.4200693889   -13.2620763277   -12.1040832666   -10.7794235388   -10.4547638111   -10.2967707499    -9.6387776888    -7.8054443555    -9.6387776888   -13.1387776888   -14.8054443555   -14.1387776888   -12.3054443555   -10.6387776888    -9.4721110222    -9.9721110222   -10.4721110222   -10.9721110222   -14.6387776888   -18.3054443555   -18.9721110222   -16.8054443555   -13.9721110222    -9.9721110222    -3.6387776888     2.6945556445     7.5278889778    11.8612223112    13.6945556445    12.6945556445    13.1945556445    14.6945556445    15.6945556445    17.3612223112    22.1945556445    25.6945556445    27.6945556445    27.5278889778    25.6945556445    22.1945556445    19.1945556445    18.0278889778    18.0278889778    16.0278889778    13.0278889778    13.8612223112    13.8612223112    13.6945556445    12.5278889778    10.0278889778     7.0278889778     4.1945556445     2.6945556445     0.3612223112    -2.6387776888    -4.8054443555    -6.3054443555    -7.8054443555   -10.3054443555   -12.3054443555   -11.6387776888   -12.4721110222   -14.3054443555   -17.9721110222   -21.8054443555   -25.1387776888   -27.8054443555   -29.3054443555   -32.8054443555   -37.4721110222   -39.8054443555   -40.3054443555   -40.8054443555   -43.6387776888   -46.1387776888   -47.6387776888   -49.3054443555   -51.1387776888   -51.4721110222   -52.1387776888   -50.1387776888   -48.8054443555   -47.1387776888   -44.4721110222   -42.6387776888   -38.4721110222   -33.9721110222   -29.4721110222   -27.1387776888   -22.6387776888   -19.3054443555   -20.3054443555   -19.1387776888   -20.3054443555   -21.4721110222   -19.4721110222   -18.6387776888   -16.6387776888   -13.9721110222   -13.9721110222   -12.6387776888   -11.1387776888   -12.4721110222   -18.6387776888   -24.3054443555   -28.6387776888   -32.8054443555   -31.3054443555   -32.3054443555   -30.8054443555   -27.9721110222   -25.8054443555   -23.6387776888   -23.1387776888   -26.3054443555   -30.3054443555   -29.3054443555   -28.4721110222   -26.4721110222   -20.4721110222   -13.1387776888    -8.6387776888    -3.3054443555    -2.1387776888    -3.9721110222    -2.1387776888     0.3612223112     2.0278889778     2.8612223112     0.8612223112     3.5278889778    10.6945556445    14.3612223112    18.0278889778    20.6945556445    19.3612223112    19.5278889778    18.0278889778    14.0278889778     8.0278889778     9.8612223112    15.3612223112    18.6945556445    20.3612223112    22.3612223112    34.6945556445    41.0278889778    40.3612223112    38.1945556445    32.6945556445    31.6945556445    34.5278889778    32.3612223112    29.3612223112    30.3612223112    36.0278889778    36.6945556445    31.8612223112    22.1945556445    14.8612223112     9.3612223112     0.8612223112    -4.8054443555    -6.4721110222    -7.1387776888   -14.8054443555   -25.3054443555   -33.1387776888   -36.6387776888   -42.4721110222   -50.4721110222   -67.9721110222   -89.8054443555  -124.6387776888  -154.9721110222  -174.1387776888  -227.9721110222  -274.9721110222  -349.3054443555  -440.9721110222  -516.1387776888  -525.4721110222  -496.1387776888  -466.1387776888  -432.8054443555  -416.9721110222  -405.3054443555  -403.3054443555  -425.4721110222  -423.8054443555  -369.3054443555  -389.8054443555  -395.1387776888  -363.9721110222  -273.3054443555  -108.3054443555    55.6945556445   166.8612223112   163.1945556445   100.3612223112    79.3612223112    90.3612223112    95.1945556445   123.1945556445   190.8612223112   252.5278889778   248.3612223112   332.1945556445   442.3612223112   458.5278889778   463.6945556445   381.8612223112   274.1945556445   176.1945556445   135.0278889778   196.8612223112   220.8612223112   211.3612223112   224.1945556445   250.1945556445   275.1945556445   282.0278889778   305.3612223112   290.3612223112   231.8612223112   235.0278889778   227.6945556445   250.5278889778   279.5278889778   296.6945556445   315.8612223112   289.6945556445   252.8612223112   253.3612223112   245.3612223112   215.3612223112   175.3612223112   145.5278889778   115.1945556445   100.0278889778   118.0278889778   113.5278889778   103.3612223112   100.8612223112    99.5278889778    99.1945556445   117.1945556445   131.0278889778   147.1945556445   147.0278889778   142.3612223112   140.1945556445   130.6945556445   121.1945556445   110.8612223112   100.8612223112    89.0278889778    90.5278889778    91.1945556445    86.0278889778    85.1945556445    80.6945556445    71.8612223112    62.3612223112    50.8612223112    43.0278889778    38.3612223112    36.8612223112    39.8612223112    43.3612223112    46.6945556445    49.3612223112    54.6945556445    52.6945556445    44.6945556445    35.3612223112    23.6945556445    13.6945556445     4.8612223112    -0.8054443555    -4.1387776888    -5.6387776888    -8.6387776888   -13.1387776888   -15.8054443555   -15.4721110222   -15.4721110222   -16.4721110222   -19.1387776888   -22.8054443555   -22.8054443555   -18.8054443555   -14.9721110222   -11.9721110222    -7.1387776888    -4.1387776888    -1.9721110222    -0.9721110222    -0.4721110222     1.0278889778     3.5278889778     2.3612223112     0.8612223112    -1.8054443555    -1.9721110222     0.6945556445     4.1945556445     2.6945556445    -1.3054443555    -5.8054443555   -10.1387776888   -11.9721110222   -12.6387776888   -14.6387776888   -14.6387776888   -15.4721110222   -17.3054443555   -17.4721110222   -19.4721110222   -20.3054443555   -20.9721110222   -21.9721110222   -24.6387776888   -26.9721110222   -27.1387776888   -25.9721110222   -24.8054443555   -25.3054443555   -28.3054443555   -31.8054443555   -35.1387776888   -38.9721110222   -42.4721110222   -43.9721110222   -44.1387776888   -43.3054443555   -42.8054443555   -42.1387776888   -41.1387776888   -38.6387776888   -36.6387776888   -34.9721110222   -31.9721110222   -28.6387776888   -25.6387776888   -22.1387776888   -19.1387776888   -15.9721110222   -15.1387776888   -18.8054443555   -23.3054443555   -27.4721110222   -30.4721110222   -33.1387776888   -35.8054443555   -40.6387776888   -44.8054443555   -48.6387776888   -54.8054443555   -60.4721110222   -64.3054443555   -66.4721110222   -67.8054443555   -66.6387776888   -63.1387776888   -57.3054443555   -49.6387776888   -42.8054443555   -37.9721110222   -33.9721110222   -29.9721110222   -23.3054443555   -18.9721110222   -14.4721110222   -11.3054443555    -9.4721110222    -5.6387776888    -2.1387776888     0.6945556445     0.0278889778    -1.8054443555    -3.4721110222    -5.8054443555    -9.4721110222   -12.6387776888   -16.1387776888   -18.3054443555   -21.8054443555   -24.4721110222   -28.9721110222   -32.4721110222   -34.4721110222   -38.1387776888   -40.4721110222   -43.8054443555   -46.4721110222   -47.3054443555   -47.4721110222   -49.1387776888   -50.9721110222   -52.6387776888   -54.1387776888   -57.1387776888   -60.1387776888   -62.3054443555   -62.8054443555   -60.4721110222   -57.1387776888   -53.9721110222   -52.9721110222   -52.8054443555   -51.6387776888   -52.1387776888   -54.1387776888   -54.6387776888   -53.9721110222   -52.9721110222   -50.4721110222   -47.6387776888   -44.8054443555   -41.6387776888   -38.1387776888   -36.1387776888   -35.4721110222   -34.6387776888   -33.6387776888   -31.6387776888   -29.1387776888   -27.8054443555   -27.6387776888   -27.1387776888   -26.8054443555   -24.9721110222   -24.3054443555   -25.3054443555   -25.1387776888   -25.6387776888   -28.4721110222   -32.4721110222   -36.1387776888   -40.4721110222   -44.1387776888   -47.8054443555   -52.9721110222   -55.6387776888   -55.3054443555   -55.4721110222   -55.4721110222   -56.6387776888   -58.9721110222   -61.1387776888   -62.9721110222   -63.6387776888   -63.3054443555   -62.3054443555   -62.8054443555   -61.6387776888   -58.4721110222   -54.8054443555   -49.8054443555   -45.1387776888   -40.8054443555   -38.1387776888   -36.3054443555   -34.9721110222   -33.3054443555   -30.1387776888   -28.1387776888   -26.4721110222   -25.4721110222   -24.4721110222   -21.8054443555   -18.1301040833   -16.9547638111   -16.2794235388   -16.4374166000   -16.7620763277   -17.4200693889   -16.7447291166   -15.2360555111 
  -27.6029136594   -29.5958299920   -30.7554129912   -32.5816626570   -34.5745789896   -37.7341619888   -41.0604116546   -43.5533279872   -40.5533279872   -38.5533279872   -37.2199946538   -36.2199946538   -37.0533279872   -39.7199946538   -44.3866613205   -51.5533279872   -57.7199946538   -64.8866613205   -69.7199946538   -72.3866613205   -73.7199946538   -74.8866613205   -76.3866613205   -77.8866613205   -80.3866613205   -82.5533279872   -85.8866613205   -87.8866613205   -89.5533279872   -90.0533279872   -89.7199946538   -84.8866613205   -79.8866613205   -73.7199946538   -69.2199946538   -66.7199946538   -67.0533279872   -66.0533279872   -62.8866613205   -60.2199946538   -55.3866613205   -50.8866613205   -45.8866613205   -41.8866613205   -36.8866613205   -31.2199946538   -25.5533279872   -20.7199946538   -15.2199946538   -12.0533279872   -11.7199946538   -11.8866613205   -11.3866613205   -11.8866613205   -14.0533279872   -16.0533279872   -21.0533279872   -26.3866613205   -32.0533279872   -35.8866613205   -39.7199946538   -44.5533279872   -50.3866613205   -54.8866613205   -58.8866613205   -62.0533279872   -64.3866613205   -66.5533279872   -65.7199946538   -63.2199946538   -61.7199946538   -61.7199946538   -59.0533279872   -53.8866613205   -48.5533279872   -46.3866613205   -46.7199946538   -48.3866613205   -47.3866613205   -45.3866613205   -43.3866613205   -40.7199946538   -36.8866613205   -32.5533279872   -30.0533279872   -28.8866613205   -27.5533279872   -25.5533279872   -23.0533279872   -21.2199946538   -20.2199946538   -22.0533279872   -21.3866613205   -16.7199946538   -14.2199946538   -18.2199946538   -22.2199946538   -26.3866613205   -29.8866613205   -33.8866613205   -39.2199946538   -47.2199946538   -51.0533279872   -50.8866613205   -54.5533279872   -65.5533279872   -78.8866613205   -81.2199946538   -82.2199946538   -88.2199946538   -88.2199946538   -79.5533279872   -71.0533279872   -60.3866613205   -54.3866613205   -50.0533279872   -47.8866613205   -51.3866613205   -58.5533279872   -57.8866613205   -54.3866613205   -42.3866613205   -26.0533279872   -15.3866613205   -13.8866613205   -11.7199946538    -8.2199946538    -9.3866613205   -11.2199946538   -11.7199946538   -12.2199946538    -9.3866613205    -5.8866613205     4.9466720128    21.2800053462    25.7800053462    29.2800053462    28.9466720128    25.1133386795    22.1133386795    25.9466720128    31.1133386795    29.4466720128    26.4466720128    20.2800053462    11.6133386795    11.4466720128     9.2800053462    11.4466720128    11.1133386795     5.6133386795     3.2800053462     3.6133386795     4.7800053462     5.2800053462     4.2800053462     4.9466720128     6.1133386795     4.1133386795     4.1133386795     0.2800053462    -3.5533279872    -8.3866613205   -18.3866613205   -27.8866613205   -34.3866613205   -45.7199946538   -54.5533279872   -56.8866613205   -63.7199946538   -83.7199946538  -101.3866613205  -127.0533279872  -170.3866613205  -211.0533279872  -252.3866613205  -290.3866613205  -323.0533279872  -346.2199946538  -371.5533279872  -416.3866613205  -460.8866613205  -454.5533279872  -424.8866613205  -401.0533279872  -422.0533279872  -506.2199946538  -587.5533279872  -594.7199946538  -547.7199946538  -445.0533279872  -359.7199946538  -271.8866613205  -237.5533279872  -199.2199946538  -194.8866613205  -150.2199946538   -89.3866613205   -24.0533279872    26.6133386795    53.6133386795    62.6133386795   159.7800053462   288.2800053462   372.9466720128   356.4466720128   299.4466720128   238.7800053462   137.2800053462   152.6133386795   165.1133386795   238.4466720128   317.7800053462   336.1133386795   249.4466720128   146.1133386795   103.2800053462   108.6133386795   102.7800053462    37.6133386795   -33.2199946538    20.4466720128    -6.8866613205    11.7800053462    81.6133386795    43.9466720128     4.9466720128   -25.2199946538   -80.3866613205   -93.8866613205   -55.8866613205     2.4466720128    23.9466720128    63.4466720128    86.7800053462   131.4466720128   163.6133386795   137.4466720128   182.1133386795   193.7800053462   174.7800053462   199.4466720128   223.7800053462   226.9466720128   224.4466720128   218.4466720128   223.4466720128   218.7800053462   207.9466720128   192.4466720128   190.6133386795   187.7800053462   177.6133386795   170.1133386795   156.4466720128   143.1133386795   146.4466720128   150.6133386795   148.4466720128   137.4466720128   124.7800053462   115.6133386795    95.6133386795    68.6133386795    48.2800053462    35.7800053462    28.9466720128    26.1133386795    25.1133386795    17.6133386795    10.2800053462     7.4466720128     6.6133386795     0.6133386795   -12.3866613205   -23.8866613205   -32.7199946538   -38.7199946538   -40.3866613205   -43.7199946538   -51.7199946538   -62.0533279872   -71.3866613205   -81.7199946538   -91.5533279872  -100.5533279872  -109.5533279872  -115.7199946538  -116.7199946538  -117.0533279872  -115.5533279872  -111.2199946538  -104.5533279872   -96.3866613205   -88.5533279872   -79.8866613205   -71.7199946538   -63.3866613205   -55.7199946538   -48.5533279872   -43.5533279872   -36.7199946538   -27.2199946538   -15.8866613205    -7.3866613205    -1.2199946538     2.4466720128     3.4466720128     3.7800053462     4.1133386795     0.4466720128    -2.2199946538    -2.7199946538    -2.8866613205    -4.2199946538    -8.7199946538   -13.0533279872   -15.0533279872   -15.7199946538   -15.5533279872   -17.3866613205   -18.5533279872   -19.8866613205   -19.8866613205   -20.5533279872   -22.3866613205   -19.8866613205   -19.3866613205   -17.7199946538   -16.7199946538   -15.0533279872   -11.0533279872    -6.8866613205    -4.8866613205    -4.7199946538    -7.5533279872   -10.0533279872   -13.0533279872   -12.5533279872   -11.7199946538   -10.5533279872   -11.7199946538   -13.3866613205   -13.0533279872   -14.0533279872   -13.8866613205   -16.2199946538   -19.5533279872   -21.7199946538   -24.0533279872   -29.0533279872   -33.7199946538   -36.3866613205   -38.3866613205   -42.2199946538   -48.2199946538   -53.8866613205   -55.0533279872   -56.8866613205   -60.0533279872   -64.5533279872   -69.2199946538   -72.2199946538   -72.7199946538   -75.2199946538   -79.0533279872   -80.3866613205   -78.8866613205   -79.5533279872   -80.3866613205   -81.0533279872   -80.2199946538   -77.5533279872   -77.0533279872   -77.0533279872   -77.2199946538   -77.8866613205   -79.7199946538   -80.3866613205   -81.7199946538   -81.3866613205   -79.5533279872   -78.2199946538   -77.3866613205   -74.7199946538   -74.7199946538   -74.7199946538   -72.8866613205   -73.8866613205   -73.8866613205   -74.2199946538   -74.3866613205   -72.3866613205   -69.8866613205   -67.8866613205   -67.8866613205   -68.8866613205   -69.8866613205   -69.0533279872   -69.8866613205   -71.7199946538   -69.0533279872   -66.3866613205   -65.8866613205   -65.0533279872   -67.2199946538   -69.0533279872   -69.2199946538   -68.0533279872   -66.0533279872   -65.7199946538   -64.0533279872   -61.0533279872   -57.0533279872   -53.0533279872   -49.5533279872   -47.0533279872   -46.8866613205   -47.3866613205   -47.2199946538   -48.0533279872   -47.8866613205   -47.7199946538   -48.8866613205   -50.3866613205   -51.5533279872   -52.3866613205   -51.2199946538   -49.8866613205   -49.8866613205   -51.8866613205   -54.0533279872   -54.0533279872   -52.7199946538   -51.8866613205   -51.5533279872   -52.2199946538   -50.7199946538   -48.2199946538   -44.8866613205   -44.3866613205   -44.3866613205   -43.2199946538   -41.3866613205   -39.2199946538   -37.3866613205   -37.5533279872   -37.8866613205   -37.2199946538   -37.3866613205   -37.3866613205   -38.0533279872   -35.5533279872   -34.3866613205   -33.8866613205   -35.8866613205   -37.2199946538   -39.0533279872   -42.2199946538   -47.5533279872   -53.7199946538   -59.2199946538   -61.5533279872   -62.0533279872   -63.8866613205   -64.8866613205   -65.5533279872   -64.5533279872   -65.2199946538   -66.0533279872   -67.3866613205   -68.2199946538   -67.5533279872   -62.7270783213   -56.5674953221   -49.9079123229   -43.4149959904   -37.4220796578   -31.9291633253   -27.7695803261   -23.7766639936 
   -9.6598503074   -10.0479818230   -11.4361133387   -13.3242448543   -12.8790430366   -12.1005078856   -10.8219727346    -8.2101042502    -5.7101042502    -2.5434375835    -0.2101042502     1.7898957498     4.1232290831     5.9565624165     7.4565624165     9.1232290831     9.4565624165    10.6232290831    13.9565624165    16.1232290831    13.9565624165    11.2898957498     8.9565624165     3.9565624165     0.7898957498    -2.3767709169    -4.0434375835    -2.2101042502    -1.0434375835    -3.3767709169    -5.2101042502    -5.2101042502    -5.2101042502    -6.7101042502   -10.5434375835   -12.8767709169   -13.2101042502   -14.0434375835   -15.7101042502   -16.2101042502   -18.2101042502   -18.8767709169   -18.8767709169   -20.3767709169   -22.3767709169   -22.2101042502   -23.3767709169   -24.5434375835   -23.5434375835   -22.2101042502   -19.7101042502   -17.7101042502   -15.5434375835   -12.8767709169   -10.0434375835    -6.5434375835    -1.3767709169     3.9565624165     7.6232290831    11.6232290831    13.4565624165    16.1232290831    19.2898957498    20.9565624165    19.2898957498    16.2898957498    15.4565624165    15.7898957498    14.4565624165    14.4565624165    14.2898957498    12.7898957498    11.1232290831    10.7898957498    10.6232290831     6.6232290831     3.6232290831     1.7898957498     0.2898957498    -2.3767709169    -3.8767709169    -0.8767709169     2.1232290831     5.7898957498     7.7898957498     7.1232290831     7.2898957498     9.7898957498    12.1232290831    10.7898957498     9.4565624165    11.4565624165    14.9565624165    14.1232290831    12.2898957498    12.1232290831    12.9565624165    11.1232290831     6.2898957498     0.4565624165    -1.3767709169    -0.7101042502     0.1232290831     0.9565624165    -1.2101042502    -1.5434375835    -1.0434375835    -2.3767709169    -5.3767709169    -6.3767709169    -7.0434375835    -6.8767709169    -7.0434375835    -6.0434375835    -5.3767709169    -3.7101042502    -1.5434375835    -0.5434375835    -1.3767709169    -2.5434375835    -1.0434375835     0.2898957498     2.6232290831     3.7898957498     5.6232290831     8.4565624165    10.1232290831    12.6232290831    15.2898957498    15.1232290831    17.2898957498    17.7898957498    17.6232290831    16.7898957498    16.6232290831    15.9565624165    15.4565624165    15.6232290831    13.1232290831     9.2898957498     6.7898957498     5.6232290831     5.7898957498     0.7898957498    -4.5434375835    -8.7101042502   -12.8767709169   -20.0434375835   -28.2101042502   -33.2101042502   -34.7101042502   -34.7101042502   -36.8767709169   -40.2101042502   -41.2101042502   -37.0434375835   -38.0434375835   -36.3767709169   -33.2101042502   -26.3767709169   -22.2101042502   -18.5434375835   -23.0434375835   -22.5434375835   -18.7101042502   -15.2101042502   -11.3767709169   -14.7101042502   -20.0434375835   -33.2101042502   -39.5434375835   -53.0434375835   -71.3767709169   -86.5434375835  -102.3767709169  -121.0434375835  -142.5434375835  -199.2101042502  -237.2101042502  -254.8767709169  -253.7101042502  -260.0434375835  -294.3767709169  -360.0434375835  -395.3767709169  -462.3767709169  -520.0434375835  -558.0434375835  -589.2101042502  -567.5434375835  -566.5434375835  -551.3767709169  -502.5434375835  -384.7101042502  -349.0434375835  -382.0434375835  -345.2101042502  -265.2101042502  -155.7101042502     1.7898957498   111.6232290831   235.9565624165   274.4565624165   284.9565624165   345.9565624165   352.2898957498   385.2898957498   390.2898957498   372.9565624165   287.1232290831   273.6232290831   347.4565624165   286.6232290831   204.2898957498   158.9565624165    91.2898957498    67.9565624165    92.6232290831   189.9565624165   296.7898957498   351.2898957498   371.4565624165   363.2898957498   310.1232290831   292.4565624165   334.6232290831   393.1232290831   420.7898957498   481.6232290831   495.6232290831   431.2898957498   344.4565624165   231.4565624165   142.9565624165    95.1232290831    66.2898957498    45.1232290831    46.1232290831    64.1232290831   131.4565624165   150.1232290831   139.6232290831   117.6232290831    81.1232290831    50.4565624165    53.6232290831    98.1232290831   176.4565624165   253.1232290831   278.4565624165   250.2898957498   194.1232290831   127.9565624165    88.6232290831    71.9565624165    73.9565624165    82.4565624165    93.7898957498    96.6232290831    99.1232290831   103.4565624165   103.7898957498    96.4565624165    84.9565624165    74.2898957498    68.1232290831    71.7898957498    87.7898957498   105.2898957498    99.4565624165    74.4565624165    45.1232290831    18.1232290831    -5.7101042502   -25.5434375835   -39.3767709169   -52.0434375835   -64.2101042502   -73.0434375835   -78.5434375835   -82.7101042502   -87.7101042502   -92.2101042502   -95.8767709169   -95.5434375835   -91.5434375835   -85.8767709169   -81.2101042502   -75.0434375835   -70.2101042502   -67.0434375835   -63.7101042502   -57.7101042502   -53.0434375835   -49.5434375835   -44.7101042502   -36.0434375835   -27.0434375835   -19.5434375835   -12.3767709169    -3.7101042502     4.2898957498    14.7898957498    24.7898957498    31.4565624165    36.4565624165    40.4565624165    42.6232290831    43.1232290831    45.2898957498    46.1232290831    46.1232290831    47.9565624165    49.6232290831    49.6232290831    49.2898957498    49.4565624165    50.6232290831    48.6232290831    45.4565624165    41.6232290831    40.7898957498    41.7898957498    45.4565624165    47.9565624165    47.7898957498    48.6232290831    49.7898957498    46.9565624165    44.4565624165    42.7898957498    41.1232290831    37.9565624165    35.9565624165    34.4565624165    31.9565624165    31.4565624165    29.7898957498    27.7898957498    22.6232290831    17.6232290831    14.6232290831    12.4565624165     9.4565624165     7.7898957498     6.1232290831     5.2898957498     5.2898957498     5.6232290831     3.9565624165     0.9565624165     0.4565624165    -1.5434375835    -2.8767709169    -3.2101042502    -2.0434375835    -0.8767709169     1.1232290831     1.9565624165     0.7898957498    -0.0434375835    -0.3767709169     0.6232290831     0.6232290831    -0.5434375835    -1.8767709169    -1.8767709169    -1.3767709169    -2.5434375835    -4.5434375835    -8.2101042502    -9.7101042502    -9.0434375835   -10.3767709169   -12.2101042502   -13.8767709169   -16.2101042502   -17.3767709169   -18.7101042502   -19.0434375835   -18.2101042502   -18.3767709169   -19.5434375835   -22.0434375835   -21.8767709169   -23.0434375835   -24.0434375835   -27.3767709169   -31.2101042502   -32.7101042502   -33.2101042502   -30.7101042502   -27.8767709169   -27.7101042502   -28.8767709169   -31.0434375835   -32.5434375835   -31.5434375835   -30.3767709169   -29.0434375835   -29.3767709169   -26.0434375835   -22.5434375835   -20.5434375835   -21.0434375835   -22.3767709169   -23.5434375835   -25.2101042502   -27.8767709169   -31.0434375835   -33.8767709169   -34.8767709169   -34.8767709169   -34.8767709169   -35.0434375835   -37.0434375835   -38.8767709169   -43.7101042502   -48.2101042502   -51.5434375835   -51.5434375835   -52.3767709169   -51.2101042502   -49.5434375835   -48.8767709169   -48.0434375835   -46.0434375835   -43.3767709169   -42.2101042502   -43.2101042502   -46.2101042502   -47.0434375835   -44.0434375835   -39.2101042502   -34.5434375835   -30.2101042502   -27.3767709169   -23.5434375835   -21.0434375835   -19.7101042502   -17.3767709169   -13.2101042502   -10.8767709169    -8.8767709169    -9.8767709169   -11.5434375835    -8.8767709169    -5.3767709169    -3.2101042502    -3.0434375835    -4.0434375835    -5.8767709169    -7.5434375835    -8.7101042502    -9.8767709169   -13.7101042502   -17.0434375835   -18.7101042502   -20.2101042502   -22.8767709169   -23.5434375835   -22.3767709169   -22.8767709169   -23.0434375835   -25.7101042502   -28.0434375835   -29.7101042502   -29.0434375835   -28.2101042502   -29.0434375835   -30.3767709169   -29.5434375835   -29.0434375835   -27.9886394012   -26.4338412189   -25.3790430366   -23.3242448543   -21.2694466720   -19.3813151564   -18.8265169741   -17.1050521251 
   21.9397219995    25.1367281475    27.8337342956    27.1974071104    26.7277465918    27.2580860732    29.2884255547    29.9854317027    25.8187650361    23.3187650361    23.6520983694    24.8187650361    24.4854317027    23.4854317027    22.8187650361    22.3187650361    19.3187650361    16.8187650361    15.1520983694    17.6520983694    19.4854317027    19.3187650361    16.9854317027    17.3187650361    17.9854317027    17.9854317027    16.3187650361    13.4854317027    11.1520983694     9.1520983694     8.8187650361     8.8187650361     7.9854317027     4.8187650361     1.4854317027    -2.3479016306    -6.3479016306    -6.3479016306    -4.6812349639    -3.0145682973    -0.5145682973     1.3187650361     2.3187650361     3.4854317027     4.6520983694     4.9854317027     3.6520983694     3.6520983694     5.1520983694     8.3187650361    10.6520983694    13.9854317027    16.8187650361    15.4854317027    11.9854317027     8.1520983694     4.4854317027     1.4854317027    -0.5145682973    -1.0145682973    -0.8479016306     3.1520983694     6.4854317027     7.4854317027     7.4854317027     6.9854317027     5.3187650361     2.3187650361    -0.1812349639    -1.6812349639    -1.6812349639    -0.6812349639     0.6520983694     0.6520983694     0.4854317027    -0.0145682973    -0.8479016306    -3.3479016306    -5.0145682973    -6.3479016306    -6.5145682973    -5.5145682973    -3.0145682973    -1.5145682973    -1.3479016306    -1.0145682973    -0.1812349639     0.1520983694    -0.5145682973     0.3187650361     1.8187650361     2.4854317027     2.4854317027     1.8187650361     1.4854317027     2.1520983694     4.1520983694     5.6520983694     6.1520983694     7.9854317027    12.6520983694    18.1520983694    20.6520983694    20.9854317027    18.9854317027    16.1520983694    14.1520983694    12.6520983694    11.4854317027    10.9854317027    11.3187650361    11.9854317027    10.1520983694     6.6520983694     3.6520983694     0.3187650361    -3.1812349639    -7.6812349639   -11.1812349639   -12.3479016306   -10.1812349639    -8.5145682973    -9.3479016306   -11.3479016306   -12.1812349639   -11.8479016306   -11.6812349639   -12.3479016306   -14.3479016306   -16.5145682973   -16.5145682973   -15.0145682973   -14.8479016306   -14.8479016306   -15.3479016306   -16.5145682973   -17.8479016306   -17.3479016306   -14.0145682973   -10.5145682973    -7.5145682973    -6.8479016306    -8.0145682973    -9.0145682973    -8.1812349639    -5.0145682973    -2.6812349639    -2.6812349639    -3.0145682973    -3.0145682973    -0.0145682973     3.3187650361     4.9854317027     3.9854317027    -0.0145682973    -2.3479016306    -5.1812349639    -9.0145682973   -12.1812349639   -17.5145682973   -22.8479016306   -24.1812349639   -26.6812349639   -29.8479016306   -27.6812349639   -25.0145682973   -27.8479016306   -37.8479016306   -56.1812349639   -75.6812349639   -83.0145682973   -84.5145682973   -90.1812349639   -92.0145682973   -96.8479016306  -109.6812349639  -113.6812349639  -132.3479016306  -190.3479016306  -235.6812349639  -249.3479016306  -247.0145682973  -242.1812349639  -235.0145682973  -225.6812349639  -229.6812349639  -272.3479016306  -343.5145682973  -448.5145682973  -552.6812349639  -676.5145682973  -729.8479016306  -760.3479016306  -822.5145682973  -835.1812349639  -859.5145682973  -858.5145682973  -869.0145682973  -896.5145682973  -975.6812349639 -1017.6812349639  -996.8479016306  -940.6812349639  -851.5145682973  -786.5145682973  -723.5145682973  -613.1812349639  -526.0145682973  -449.3479016306  -312.5145682973  -195.5145682973  -125.5145682973   -91.3479016306  -102.3479016306  -127.5145682973   -46.5145682973    72.3187650361   156.6520983694   192.9854317027   138.6520983694   156.6520983694   245.4854317027   362.9854317027   422.8187650361   428.6520983694   362.6520983694   315.1520983694   332.8187650361   304.4854317027   279.8187650361   378.1520983694   454.6520983694   409.3187650361   316.8187650361   266.3187650361   318.4854317027   312.3187650361   276.6520983694   218.9854317027   167.3187650361   116.8187650361   167.6520983694   216.4854317027   208.6520983694   233.9854317027   299.9854317027   268.3187650361   213.3187650361   235.8187650361   308.4854317027   381.3187650361   417.8187650361   493.8187650361   518.4854317027   507.3187650361   506.4854317027   528.9854317027   496.4854317027   446.3187650361   416.9854317027   374.4854317027   358.1520983694   377.9854317027   400.8187650361   407.1520983694   393.9854317027   372.8187650361   355.8187650361   345.6520983694   342.8187650361   351.6520983694   363.9854317027   381.8187650361   402.9854317027   432.4854317027   471.8187650361   507.8187650361   515.4854317027   496.6520983694   467.4854317027   429.6520983694   396.1520983694   367.6520983694   346.6520983694   328.1520983694   308.3187650361   280.8187650361   249.4854317027   225.6520983694   204.8187650361   187.4854317027   179.9854317027   175.1520983694   166.8187650361   152.3187650361   137.8187650361   126.3187650361   114.8187650361   103.8187650361    94.3187650361    85.6520983694    81.9854317027    80.3187650361    83.4854317027    83.6520983694    85.9854317027    87.4854317027    86.8187650361    85.9854317027    86.1520983694    87.8187650361    92.3187650361    94.6520983694    95.8187650361    99.4854317027   103.9854317027   107.4854317027   108.1520983694   107.9854317027   107.3187650361   105.9854317027   102.8187650361    99.3187650361    93.8187650361    88.1520983694    83.6520983694    82.6520983694    79.8187650361    78.8187650361    77.8187650361    73.8187650361    70.9854317027    66.8187650361    62.8187650361    57.8187650361    51.4854317027    45.1520983694    40.9854317027    36.8187650361    34.1520983694    33.6520983694    32.6520983694    30.4854317027    28.3187650361    24.8187650361    22.9854317027    22.1520983694    18.9854317027    15.6520983694    13.1520983694    13.4854317027    15.8187650361    16.6520983694    13.9854317027    11.6520983694    10.1520983694     8.8187650361     6.9854317027     3.6520983694     0.1520983694    -2.0145682973    -4.8479016306    -7.3479016306   -10.6812349639   -12.1812349639   -13.3479016306   -15.8479016306   -20.1812349639   -25.0145682973   -29.8479016306   -32.3479016306   -35.5145682973   -40.3479016306   -45.0145682973   -48.6812349639   -51.1812349639   -54.0145682973   -56.8479016306   -61.5145682973   -64.1812349639   -66.5145682973   -68.5145682973   -72.6812349639   -77.0145682973   -79.0145682973   -78.3479016306   -78.5145682973   -78.6812349639   -78.8479016306   -78.8479016306   -78.8479016306   -77.6812349639   -78.1812349639   -80.3479016306   -80.6812349639   -80.6812349639   -80.8479016306   -80.8479016306   -79.8479016306   -78.1812349639   -77.8479016306   -78.1812349639   -79.1812349639   -78.5145682973   -78.0145682973   -75.0145682973   -69.8479016306   -67.5145682973   -65.3479016306   -62.5145682973   -59.1812349639   -57.5145682973   -56.0145682973   -56.0145682973   -55.6812349639   -54.5145682973   -52.8479016306   -51.3479016306   -51.8479016306   -52.8479016306   -53.8479016306   -57.3479016306   -63.3479016306   -70.1812349639   -74.8479016306   -78.0145682973   -80.8479016306   -82.3479016306   -83.6812349639   -84.0145682973   -83.6812349639   -83.8479016306   -84.8479016306   -87.1812349639   -87.3479016306   -87.5145682973   -85.8479016306   -82.8479016306   -78.3479016306   -71.6812349639   -67.0145682973   -64.0145682973   -62.3479016306   -61.6812349639   -63.1812349639   -64.8479016306   -66.0145682973   -67.3479016306   -68.0145682973   -66.5145682973   -64.8479016306   -64.1812349639   -63.1812349639   -64.1812349639   -66.8479016306   -69.5145682973   -68.8479016306   -66.3479016306   -65.3479016306   -63.5145682973   -60.1812349639   -56.0145682973   -52.3479016306   -50.1812349639   -48.5145682973   -46.8479016306   -44.3479016306   -41.3479016306   -41.6812349639   -41.1812349639   -37.6812349639   -33.5145682973   -32.6812349639   -31.3782411120   -28.2419139268   -25.7722534082   -22.9692595563   -21.3329323710   -20.0299385191   -17.0602780005   -13.9239508153 
  -15.6365092074   -16.3738991193   -18.7779556979   -21.8486789431   -24.0860688551   -25.3234587670   -27.2275153456   -28.9649052575   -27.4649052575   -26.6315719242   -23.9649052575   -24.2982385909   -22.6315719242   -20.4649052575   -15.7982385909   -13.2982385909   -12.2982385909   -11.9649052575   -10.7982385909    -8.1315719242    -5.6315719242    -3.4649052575     0.3684280758     5.8684280758    10.3684280758    12.5350947425    14.5350947425    17.8684280758    19.2017614091    18.3684280758    15.0350947425    11.2017614091     8.8684280758     8.2017614091     9.3684280758     9.5350947425     9.0350947425     6.8684280758     3.7017614091    -0.2982385909    -4.6315719242    -6.1315719242   -10.7982385909   -16.9649052575   -21.6315719242   -21.7982385909   -20.4649052575   -19.2982385909   -20.4649052575   -20.6315719242   -19.6315719242   -18.6315719242   -19.1315719242   -19.4649052575   -19.4649052575   -18.6315719242   -16.4649052575   -16.1315719242   -13.1315719242    -8.1315719242    -4.4649052575    -2.9649052575    -0.1315719242     1.8684280758     4.8684280758     5.8684280758     5.5350947425     5.0350947425     5.5350947425     8.0350947425    11.7017614091    13.3684280758    13.3684280758    13.0350947425    13.2017614091    13.8684280758    16.7017614091    16.8684280758    15.7017614091    15.2017614091    14.5350947425    13.2017614091    11.0350947425     8.7017614091     8.8684280758     9.8684280758    10.3684280758     9.8684280758     9.2017614091     8.7017614091     7.8684280758     6.8684280758     4.5350947425     3.8684280758     3.5350947425     5.5350947425     7.2017614091     8.3684280758     8.7017614091     9.0350947425     8.3684280758     5.2017614091    -0.1315719242    -3.6315719242    -5.1315719242    -5.2982385909    -5.2982385909    -6.6315719242    -8.1315719242   -10.2982385909   -10.6315719242   -13.4649052575   -15.6315719242   -16.4649052575   -17.1315719242   -15.2982385909   -13.2982385909   -11.6315719242    -9.6315719242    -7.6315719242    -5.7982385909    -3.7982385909    -3.1315719242    -3.2982385909    -4.4649052575    -3.4649052575    -3.6315719242    -3.7982385909    -3.6315719242    -2.6315719242    -0.1315719242    -1.9649052575    -5.6315719242    -8.2982385909    -7.7982385909    -7.1315719242    -6.7982385909    -7.7982385909    -7.9649052575    -6.9649052575    -5.7982385909    -5.7982385909    -4.7982385909    -2.1315719242    -0.6315719242    -0.2982385909    -1.6315719242    -0.7982385909     0.3684280758    -6.6315719242   -15.6315719242   -25.9649052575   -26.4649052575   -35.4649052575   -50.7982385909   -68.7982385909   -91.7982385909  -103.7982385909  -118.2982385909  -157.1315719242  -218.7982385909  -286.4649052575  -344.2982385909  -403.7982385909  -499.9649052575  -610.4649052575  -653.1315719242  -641.4649052575  -649.2982385909  -628.9649052575  -625.4649052575  -604.9649052575  -572.2982385909  -593.7982385909  -607.2982385909  -581.6315719242  -470.4649052575  -303.4649052575  -141.7982385909   -35.6315719242   110.5350947425   195.5350947425   180.2017614091   116.0350947425   152.2017614091   216.0350947425   277.3684280758   320.5350947425   337.5350947425   406.5350947425   476.0350947425   517.2017614091   461.0350947425   323.5350947425    98.0350947425   -53.4649052575  -156.6315719242  -155.9649052575   -45.4649052575    76.0350947425   113.8684280758    81.7017614091    34.0350947425   -17.6315719242   -19.4649052575   -27.1315719242   -51.4649052575   -65.9649052575   -32.6315719242    29.5350947425   174.7017614091   302.2017614091   380.3684280758   432.0350947425   392.3684280758   339.3684280758   278.3684280758   242.5350947425   247.8684280758   258.2017614091   240.8684280758   211.2017614091   192.5350947425   181.7017614091   164.0350947425   152.0350947425   140.3684280758   126.2017614091   114.2017614091   111.2017614091   125.2017614091   138.2017614091   154.5350947425   171.2017614091   182.3684280758   189.3684280758   189.7017614091   203.3684280758   222.0350947425   240.2017614091   250.2017614091   252.5350947425   254.0350947425   255.0350947425   252.2017614091   247.7017614091   238.5350947425   225.7017614091   211.2017614091   192.2017614091   177.0350947425   167.0350947425   162.5350947425   152.2017614091   133.7017614091   111.0350947425    96.0350947425    90.5350947425    89.3684280758    94.0350947425    99.0350947425   101.5350947425   103.5350947425   107.3684280758   109.0350947425   111.3684280758   114.7017614091   120.5350947425   123.0350947425   126.0350947425   129.2017614091   131.8684280758   130.8684280758   125.0350947425   116.3684280758   105.3684280758    91.0350947425    75.8684280758    65.2017614091    56.2017614091    49.8684280758    44.3684280758    39.5350947425    34.8684280758    31.7017614091    32.2017614091    33.0350947425    32.5350947425    27.7017614091    22.8684280758    18.5350947425    15.0350947425    13.8684280758    16.2017614091    16.8684280758    18.0350947425    18.0350947425    18.2017614091    17.0350947425    13.2017614091    13.7017614091    15.0350947425    15.8684280758    16.3684280758    18.5350947425    18.0350947425    16.0350947425    13.5350947425    10.7017614091     7.5350947425     5.5350947425     2.3684280758    -2.1315719242    -7.4649052575    -9.9649052575    -9.6315719242   -13.7982385909   -22.2982385909   -28.4649052575   -33.9649052575   -36.4649052575   -34.1315719242   -31.7982385909   -30.9649052575   -27.4649052575   -23.4649052575   -20.6315719242   -19.4649052575   -19.6315719242   -17.4649052575   -12.6315719242    -7.9649052575    -2.7982385909     2.0350947425     6.2017614091    12.0350947425    16.5350947425    15.7017614091    14.2017614091    16.0350947425    16.7017614091    16.7017614091    14.8684280758    12.2017614091    11.0350947425     8.2017614091     1.0350947425    -5.2982385909   -11.4649052575   -17.4649052575   -23.6315719242   -29.4649052575   -34.4649052575   -35.2982385909   -33.7982385909   -34.7982385909   -35.7982385909   -37.2982385909   -37.6315719242   -35.2982385909   -31.9649052575   -30.4649052575   -29.2982385909   -29.7982385909   -28.2982385909   -25.7982385909   -24.6315719242   -25.7982385909   -28.2982385909   -30.2982385909   -32.7982385909   -35.1315719242   -37.9649052575   -41.2982385909   -45.9649052575   -51.9649052575   -56.6315719242   -58.1315719242   -58.9649052575   -59.6315719242   -62.2982385909   -64.2982385909   -65.7982385909   -66.1315719242   -64.7982385909   -62.4649052575   -59.4649052575   -55.1315719242   -50.9649052575   -48.6315719242   -46.2982385909   -44.4649052575   -43.6315719242   -43.7982385909   -43.4649052575   -43.4649052575   -43.1315719242   -43.1315719242   -43.9649052575   -45.7982385909   -47.4649052575   -50.4649052575   -53.9649052575   -55.9649052575   -57.2982385909   -57.2982385909   -56.2982385909   -54.2982385909   -55.2982385909   -56.6315719242   -56.6315719242   -56.9649052575   -58.9649052575   -61.1315719242   -61.2982385909   -59.4649052575   -57.7982385909   -55.7982385909   -53.4649052575   -53.6315719242   -52.7982385909   -50.7982385909   -50.2982385909   -50.2982385909   -47.9649052575   -45.2982385909   -43.6315719242   -41.4649052575   -37.7982385909   -33.6315719242   -27.6315719242   -22.7982385909   -20.2982385909   -20.2982385909   -21.1315719242   -19.1315719242   -18.9649052575   -20.1315719242   -18.4649052575   -15.4649052575   -12.1315719242    -9.6315719242    -8.6315719242    -7.4649052575    -5.1315719242    -3.1315719242    -2.9649052575    -3.1315719242    -2.6315719242    -1.2982385909     1.5350947425     2.8684280758     3.3684280758     4.0350947425     3.8684280758     3.3684280758     2.0350947425    -0.4649052575    -1.4649052575    -1.1315719242     0.3684280758     0.3684280758    -0.2982385909    -1.7982385909    -1.9649052575    -0.2982385909     1.2017614091    -0.7982385909    -2.4649052575    -3.9649052575    -4.7982385909    -5.9649052575    -7.6315719242    -5.7275153456    -4.4901254337    -4.0860688551    -5.8486789431    -5.9446223646    -6.0405657860    -4.8031758740    -4.3991192954 
