   34.0272654370    36.4747393745    38.5888799786    41.3696872494    44.8171611868    48.0979684576    50.7121090617    52.9929163325    51.6595829992    49.8262496659    46.8262496659    43.9929163325    41.3262496659    37.9929163325    36.1595829992    35.6595829992    34.9929163325    34.9929163325    35.4929163325    35.1595829992    34.6595829992    33.9929163325    33.8262496659    34.6595829992    35.4929163325    36.8262496659    38.6595829992    39.6595829992    40.3262496659    41.9929163325    43.1595829992    42.9929163325    42.8262496659    42.8262496659    43.1595829992    43.8262496659    42.8262496659    40.3262496659    38.3262496659    36.1595829992    32.8262496659    27.4929163325    21.3262496659    16.1595829992    13.9929163325    11.9929163325     9.6595829992     6.3262496659     2.3262496659    -1.6737503341    -6.0070836675   -10.6737503341   -13.8404170008   -14.0070836675   -13.5070836675   -13.6737503341   -13.8404170008   -13.5070836675   -13.3404170008   -11.5070836675   -10.8404170008   -10.1737503341   -10.3404170008    -9.5070836675    -7.5070836675    -5.1737503341    -3.3404170008    -1.3404170008     1.3262496659     3.6595829992     4.3262496659     3.6595829992     2.6595829992     3.6595829992     7.3262496659     8.9929163325     9.3262496659     8.6595829992    10.1595829992    13.8262496659    17.8262496659    19.4929163325    21.4929163325    23.8262496659    24.8262496659    25.6595829992    26.9929163325    28.6595829992    30.1595829992    32.8262496659    33.3262496659    32.8262496659    32.4929163325    34.1595829992    36.6595829992    37.1595829992    35.8262496659    35.6595829992    35.8262496659    35.9929163325    36.6595829992    35.6595829992    34.8262496659    34.4929163325    35.4929163325    35.3262496659    35.8262496659    38.9929163325    41.8262496659    42.1595829992    40.6595829992    37.6595829992    35.3262496659    33.4929163325    30.9929163325    27.4929163325    22.6595829992    19.4929163325    17.1595829992    16.8262496659    17.1595829992    16.4929163325    14.4929163325    10.4929163325     7.1595829992     3.9929163325     0.1595829992    -2.5070836675    -4.1737503341    -5.3404170008    -6.5070836675    -8.5070836675   -11.1737503341   -15.3404170008   -19.3404170008   -26.1737503341   -36.1737503341   -52.0070836675   -54.3404170008   -54.1737503341   -53.0070836675   -54.5070836675   -60.0070836675   -63.8404170008   -63.1737503341   -65.1737503341   -68.5070836675   -77.8404170008   -88.8404170008   -98.6737503341  -110.8404170008  -102.3404170008  -107.8404170008  -103.8404170008  -111.8404170008  -115.0070836675  -141.8404170008  -162.1737503341  -180.8404170008  -200.8404170008  -216.0070836675  -238.3404170008  -309.0070836675  -333.3404170008  -375.0070836675  -434.3404170008  -420.8404170008  -457.6737503341  -495.3404170008  -541.3404170008  -574.5070836675  -604.1737503341  -632.8404170008  -675.0070836675  -687.0070836675  -730.0070836675  -782.1737503341  -824.5070836675  -774.0070836675  -775.6737503341  -765.0070836675  -749.1737503341  -806.5070836675  -811.8404170008  -788.0070836675  -804.5070836675  -848.0070836675  -826.8404170008  -780.6737503341  -777.5070836675  -900.6737503341  -970.0070836675 -1023.5070836675  -988.6737503341 -1050.0070836675 -1157.3404170008 -1232.6737503341 -1245.1737503341 -1177.5070836675 -1073.8404170008  -998.8404170008  -890.5070836675  -761.8404170008  -696.5070836675  -626.0070836675  -529.8404170008  -359.8404170008  -199.1737503341   -74.0070836675   -67.5070836675   -10.0070836675   122.9929163325   236.9929163325   307.6595829992   293.4929163325   243.4929163325   185.9929163325   149.8262496659   146.8262496659   101.3262496659    72.6595829992    85.6595829992   144.9929163325   196.9929163325   254.9929163325   355.9929163325   442.9929163325   469.4929163325   497.9929163325   543.6595829992   603.9929163325   643.1595829992   696.6595829992   731.1595829992   729.1595829992   757.4929163325   753.1595829992   725.6595829992   680.6595829992   636.9929163325   611.4929163325   568.6595829992   534.1595829992   546.3262496659   558.4929163325   544.9929163325   526.3262496659   509.9929163325   502.9929163325   509.3262496659   513.9929163325   519.4929163325   530.8262496659   550.8262496659   565.8262496659   574.9929163325   579.4929163325   587.9929163325   607.6595829992   623.1595829992   631.1595829992   640.8262496659   642.8262496659   640.4929163325   641.4929163325   639.3262496659   632.1595829992   627.1595829992   623.9929163325   621.1595829992   622.1595829992   621.6595829992   617.3262496659   613.1595829992   607.6595829992   605.3262496659   603.9929163325   603.8262496659   609.1595829992   618.4929163325   626.4929163325   633.8262496659   645.1595829992   655.9929163325   668.4929163325   684.3262496659   696.8262496659   708.1595829992   724.8262496659   743.8262496659   761.4929163325   775.8262496659   789.8262496659   802.4929163325   814.9929163325   825.6595829992   832.9929163325   838.1595829992   840.4929163325   840.3262496659   835.8262496659   826.6595829992   817.4929163325   809.6595829992   800.3262496659   788.4929163325   775.8262496659   764.4929163325   753.3262496659   742.1595829992   730.8262496659   716.1595829992   701.6595829992   689.9929163325   680.8262496659   670.8262496659   659.1595829992   644.6595829992   629.3262496659   614.4929163325   597.8262496659   579.8262496659   563.6595829992   550.8262496659   539.9929163325   528.6595829992   515.8262496659   503.8262496659   491.3262496659   477.4929163325   461.8262496659   446.1595829992   433.1595829992   423.6595829992   415.6595829992   406.4929163325   396.1595829992   385.6595829992   373.6595829992   358.4929163325   340.9929163325   322.9929163325   305.9929163325   290.4929163325   276.9929163325   262.9929163325   249.6595829992   238.9929163325   229.1595829992   220.6595829992   211.3262496659   200.8262496659   191.9929163325   184.4929163325   176.1595829992   166.3262496659   155.4929163325   143.9929163325   131.3262496659   119.4929163325   107.8262496659    96.6595829992    85.9929163325    74.1595829992    62.6595829992    48.6595829992    34.6595829992    21.6595829992    11.4929163325     2.1595829992    -7.1737503341   -16.3404170008   -25.8404170008   -33.5070836675   -39.0070836675   -43.6737503341   -49.1737503341   -53.0070836675   -55.1737503341   -55.5070836675   -55.5070836675   -52.8404170008   -48.5070836675   -42.0070836675   -35.6737503341   -29.0070836675   -22.0070836675   -13.1737503341    -1.8404170008     8.8262496659    16.9929163325    24.3262496659    32.1595829992    37.3262496659    41.9929163325    43.9929163325    46.3262496659    46.8262496659    46.8262496659    45.9929163325    42.1595829992    36.3262496659    29.4929163325    23.1595829992    16.4929163325    10.1595829992     3.9929163325    -3.3404170008    -8.5070836675   -10.6737503341   -12.8404170008   -15.1737503341   -18.1737503341   -19.0070836675   -19.5070836675   -21.8404170008   -23.3404170008   -24.8404170008   -23.0070836675   -20.0070836675   -16.6737503341   -15.3404170008   -12.6737503341    -7.3404170008    -3.8404170008    -1.6737503341    -1.5070836675    -0.8404170008     0.4929163325     1.1595829992     0.4929163325    -0.5070836675    -2.0070836675    -0.5070836675    -0.5070836675    -1.5070836675    -4.8404170008    -7.1737503341   -10.3404170008   -15.5070836675   -19.6737503341   -24.0070836675   -27.1737503341   -29.3404170008   -31.8404170008   -35.6737503341   -38.5070836675   -40.1737503341   -41.3404170008   -43.0070836675   -45.8404170008   -49.8404170008   -53.1737503341   -54.5070836675   -56.0070836675   -57.3404170008   -60.3404170008   -63.3404170008   -66.1737503341   -68.5070836675   -71.1737503341   -73.3404170008   -76.1737503341   -77.6737503341   -78.1737503341   -80.5070836675   -83.1737503341   -86.6737503341   -88.1737503341   -91.1737503341   -93.8404170008   -96.5070836675   -98.8404170008   -92.1212242716   -85.7353648757   -80.1828388132   -74.7969794173   -69.2444533547   -63.3585939588   -58.4727345630   -54.4202085004 
  205.4706431812   227.9303442754   248.8900453696   268.8497464638   288.9761142247   310.9358153189   333.3955164131   355.3552175073   353.1885508407   352.5218841740   352.3552175073   353.5218841740   355.1885508407   357.5218841740   359.3552175073   360.5218841740   359.6885508407   358.3552175073   357.6885508407   358.3552175073   358.5218841740   356.5218841740   355.0218841740   354.5218841740   356.1885508407   357.1885508407   355.6885508407   351.1885508407   344.8552175073   337.8552175073   331.1885508407   324.1885508407   316.3552175073   310.5218841740   306.0218841740   302.1885508407   298.8552175073   297.0218841740   294.5218841740   291.1885508407   286.3552175073   280.6885508407   274.5218841740   269.8552175073   267.1885508407   266.0218841740   265.3552175073   264.6885508407   263.6885508407   262.8552175073   261.8552175073   260.3552175073   257.6885508407   253.3552175073   249.5218841740   245.6885508407   240.8552175073   235.8552175073   231.0218841740   227.8552175073   225.1885508407   221.6885508407   216.8552175073   212.8552175073   211.8552175073   211.1885508407   209.1885508407   205.3552175073   201.8552175073   198.8552175073   197.0218841740   194.8552175073   191.8552175073   188.3552175073   186.8552175073   184.8552175073   182.0218841740   179.5218841740   178.0218841740   177.3552175073   176.0218841740   173.0218841740   169.5218841740   167.8552175073   168.0218841740   168.0218841740   163.3552175073   158.1885508407   155.6885508407   155.1885508407   153.5218841740   150.0218841740   146.1885508407   141.6885508407   138.5218841740   134.1885508407   128.1885508407   121.6885508407   115.6885508407   109.6885508407   103.0218841740    96.0218841740    89.5218841740    83.3552175073    77.1885508407    69.5218841740    61.8552175073    55.8552175073    49.3552175073    43.5218841740    36.0218841740    28.8552175073    21.8552175073    15.6885508407     9.8552175073     3.8552175073    -3.9781158260   -12.3114491593   -18.1447824927   -23.8114491593   -29.9781158260   -35.6447824927   -41.1447824927   -47.8114491593   -54.4781158260   -61.3114491593   -67.4781158260   -73.6447824927   -77.1447824927   -79.6447824927   -82.8114491593   -87.3114491593   -92.4781158260   -96.4781158260  -101.3114491593  -105.1447824927  -109.6447824927  -114.3114491593  -118.3114491593  -120.9781158260  -123.8114491593  -129.1447824927  -135.8114491593  -140.8114491593  -145.4781158260  -150.4781158260  -155.3114491593  -160.4781158260  -164.8114491593  -169.6447824927  -171.4781158260  -176.3114491593  -184.1447824927  -191.9781158260  -199.4781158260  -206.1447824927  -210.3114491593  -220.1447824927  -245.6447824927  -265.4781158260  -282.6447824927  -292.9781158260  -308.9781158260  -337.3114491593  -371.6447824927  -391.9781158260  -411.6447824927  -460.4781158260  -541.4781158260  -634.1447824927  -706.4781158260  -761.8114491593  -789.3114491593  -858.3114491593  -939.8114491593 -1005.8114491593 -1027.6447824927 -1016.1447824927  -976.3114491593  -930.3114491593  -894.3114491593  -856.6447824927  -829.9781158260  -780.9781158260  -727.4781158260  -700.4781158260  -644.6447824927  -644.8114491593  -776.1447824927  -831.1447824927  -754.4781158260  -720.8114491593  -749.8114491593  -884.6447824927 -1053.6447824927 -1169.9781158260 -1183.1447824927 -1210.3114491593 -1293.1447824927 -1390.9781158260 -1487.1447824927 -1450.1447824927 -1414.8114491593 -1405.9781158260 -1297.9781158260 -1194.1447824927 -1187.3114491593 -1173.4781158260 -1270.4781158260 -1213.8114491593 -1082.3114491593 -1026.6447824927 -1043.9781158260 -1093.9781158260 -1004.1447824927  -850.1447824927  -686.4781158260  -587.8114491593  -550.6447824927  -506.3114491593  -452.8114491593  -483.8114491593  -506.4781158260  -502.6447824927  -328.8114491593  -213.9781158260  -156.9781158260   -97.3114491593   -36.3114491593    54.6885508407    89.1885508407    95.5218841740   114.5218841740    92.8552175073    81.6885508407   120.0218841740   146.1885508407   222.0218841740   282.1885508407   341.3552175073   362.1885508407   334.3552175073   296.0218841740   293.6885508407   278.0218841740   261.6885508407   203.3552175073   119.5218841740    71.6885508407    49.3552175073    43.1885508407    44.0218841740    48.5218841740    62.6885508407    77.5218841740    78.0218841740    68.3552175073    77.8552175073    90.8552175073    94.5218841740    98.0218841740   104.8552175073   134.1885508407   178.8552175073   193.1885508407   191.1885508407   175.3552175073   162.3552175073   150.6885508407   146.3552175073   143.0218841740   140.8552175073   143.0218841740   146.6885508407   153.8552175073   160.0218841740   163.1885508407   170.3552175073   181.1885508407   186.3552175073   191.1885508407   196.1885508407   199.3552175073   200.5218841740   202.5218841740   198.8552175073   195.1885508407   190.1885508407   184.1885508407   178.6885508407   175.0218841740   173.5218841740   174.3552175073   172.3552175073   169.0218841740   170.0218841740   171.0218841740   173.3552175073   180.8552175073   189.6885508407   200.1885508407   209.5218841740   216.1885508407   223.6885508407   231.6885508407   239.1885508407   242.0218841740   244.3552175073   245.1885508407   242.8552175073   237.6885508407   230.5218841740   223.5218841740   214.5218841740   199.8552175073   181.5218841740   159.6885508407   137.5218841740   117.0218841740    97.6885508407    77.3552175073    56.0218841740    34.5218841740    12.6885508407    -6.9781158260   -24.9781158260   -43.1447824927   -59.3114491593   -71.4781158260   -79.9781158260   -89.3114491593   -96.4781158260  -103.3114491593  -111.6447824927  -118.9781158260  -125.3114491593  -131.9781158260  -139.1447824927  -144.6447824927  -148.6447824927  -154.6447824927  -160.3114491593  -167.1447824927  -174.8114491593  -184.1447824927  -194.6447824927  -203.4781158260  -213.1447824927  -222.4781158260  -229.1447824927  -235.8114491593  -241.9781158260  -249.4781158260  -256.4781158260  -261.3114491593  -266.8114491593  -271.4781158260  -278.9781158260  -285.8114491593  -293.4781158260  -302.9781158260  -313.8114491593  -323.8114491593  -334.8114491593  -346.3114491593  -355.8114491593  -366.6447824927  -382.8114491593  -397.1447824927  -408.8114491593  -419.6447824927  -429.4781158260  -440.8114491593  -451.6447824927  -460.4781158260  -467.3114491593  -472.9781158260  -477.8114491593  -482.1447824927  -485.4781158260  -486.9781158260  -488.1447824927  -488.4781158260  -484.8114491593  -479.4781158260  -476.3114491593  -474.6447824927  -474.1447824927  -470.8114491593  -464.6447824927  -459.8114491593  -454.8114491593  -449.8114491593  -443.1447824927  -436.6447824927  -427.3114491593  -418.1447824927  -410.3114491593  -404.3114491593  -397.1447824927  -390.1447824927  -383.3114491593  -377.8114491593  -369.4781158260  -362.3114491593  -356.1447824927  -347.4781158260  -339.9781158260  -332.9781158260  -327.8114491593  -321.8114491593  -319.4781158260  -316.8114491593  -313.3114491593  -306.3114491593  -299.8114491593  -294.6447824927  -288.6447824927  -281.6447824927  -276.3114491593  -270.9781158260  -267.1447824927  -266.4781158260  -264.4781158260  -259.8114491593  -252.6447824927  -245.1447824927  -237.1447824927  -230.9781158260  -224.6447824927  -218.9781158260  -214.1447824927  -208.3114491593  -203.4781158260  -199.9781158260  -196.4781158260  -192.9781158260  -189.4781158260  -185.8114491593  -181.8114491593  -179.8114491593  -180.8114491593  -183.4781158260  -184.4781158260  -183.9781158260  -182.9781158260  -182.1447824927  -180.6447824927  -179.1447824927  -178.6447824927  -178.4781158260  -178.6447824927  -178.4781158260  -177.4781158260  -172.9781158260  -168.9781158260  -165.8114491593  -161.9781158260  -157.8114491593  -153.8114491593  -149.4781158260  -147.4781158260  -146.8114491593  -147.4781158260  -147.9781158260  -146.6447824927  -144.3114491593  -142.3114491593  -139.4781158260  -134.4781158260  -133.1447824927  -132.8114491593  -132.6447824927  -124.1044835869  -114.3975180144  -105.6905524420   -97.8169202028   -89.1099546304   -79.4029890579   -68.6960234855   -58.9890579130 
    5.6980250867     4.7941019482     2.8901788097     2.3195890045     2.5823325327     2.6784093942     4.1078195890     4.7038964505     0.7038964505    -2.2961035495    -5.2961035495    -8.4627702162    -9.6294368828   -11.1294368828   -12.9627702162   -13.9627702162   -14.9627702162   -15.6294368828   -15.7961035495   -17.7961035495   -19.4627702162   -21.6294368828   -26.6294368828   -32.2961035495   -35.2961035495   -35.9627702162   -36.1294368828   -37.4627702162   -41.4627702162   -45.1294368828   -46.9627702162   -49.7961035495   -52.7961035495   -57.7961035495   -63.4627702162   -66.2961035495   -69.2961035495   -71.4627702162   -73.2961035495   -74.1294368828   -74.6294368828   -78.1294368828   -81.6294368828   -86.2961035495   -90.4627702162   -94.2961035495   -98.2961035495  -101.9627702162  -106.1294368828  -107.4627702162  -104.6294368828  -104.6294368828  -107.1294368828  -110.7961035495  -114.1294368828  -115.7961035495  -116.9627702162  -117.6294368828  -117.9627702162  -116.2961035495  -113.9627702162  -109.9627702162  -106.6294368828  -103.9627702162  -101.1294368828   -99.1294368828   -99.9627702162  -101.2961035495  -100.2961035495   -99.6294368828   -98.6294368828   -99.6294368828  -101.6294368828  -103.4627702162  -106.1294368828  -108.4627702162  -110.1294368828  -113.1294368828  -115.7961035495  -117.9627702162  -118.7961035495  -118.9627702162  -118.4627702162  -116.9627702162  -115.2961035495  -111.4627702162  -108.7961035495  -108.2961035495  -108.2961035495  -107.4627702162  -104.9627702162  -102.7961035495  -102.7961035495  -102.7961035495  -101.6294368828  -101.7961035495  -103.9627702162  -106.4627702162  -109.9627702162  -115.1294368828  -119.4627702162  -123.9627702162  -127.4627702162  -129.1294368828  -129.6294368828  -128.1294368828  -125.9627702162  -125.4627702162  -124.6294368828  -124.9627702162  -125.4627702162  -125.9627702162  -125.2961035495  -126.1294368828  -125.2961035495  -121.2961035495  -117.4627702162  -117.2961035495  -121.2961035495  -119.1294368828  -113.7961035495  -115.4627702162  -120.1294368828  -125.9627702162  -131.9627702162  -136.6294368828  -142.7961035495  -145.7961035495  -146.9627702162  -145.7961035495  -145.9627702162  -148.6294368828  -153.6294368828  -155.4627702162  -150.2961035495  -151.6294368828  -155.4627702162  -155.1294368828  -154.1294368828  -152.6294368828  -148.7961035495  -145.4627702162  -139.9627702162  -137.7961035495  -137.2961035495  -134.7961035495  -133.1294368828  -131.2961035495  -130.4627702162  -131.7961035495  -134.1294368828  -133.2961035495  -134.6294368828  -134.2961035495  -133.7961035495  -130.7961035495  -125.6294368828  -120.9627702162  -123.1294368828  -139.4627702162  -147.2961035495  -154.1294368828  -184.9627702162  -214.4627702162  -227.9627702162  -225.1294368828  -216.9627702162  -236.6294368828  -288.9627702162  -361.4627702162  -436.7961035495  -532.2961035495  -600.9627702162  -652.4627702162  -691.2961035495  -760.7961035495  -808.1294368828  -831.6294368828  -852.4627702162  -847.6294368828  -831.2961035495  -816.6294368828  -809.6294368828  -818.1294368828  -821.4627702162  -932.6294368828 -1052.7961035495 -1102.6294368828 -1097.1294368828 -1064.1294368828 -1091.1294368828 -1212.2961035495 -1329.4627702162 -1355.7961035495 -1331.6294368828 -1286.6294368828 -1360.2961035495 -1435.1294368828 -1481.7961035495 -1575.6294368828 -1753.1294368828 -1670.9627702162 -1530.1294368828 -1353.6294368828 -1218.9627702162 -1113.7961035495 -1050.6294368828  -829.6294368828  -624.9627702162  -614.1294368828  -689.1294368828  -748.1294368828  -786.9627702162  -762.6294368828  -630.7961035495  -387.6294368828   -56.7961035495   113.5372297838   181.7038964505    57.3705631172   -32.6294368828   -52.7961035495    30.5372297838    43.2038964505   -18.1294368828     9.2038964505    56.8705631172    55.7038964505   132.5372297838   149.0372297838   117.8705631172    58.7038964505    -9.9627702162  -101.1294368828   -89.4627702162    97.3705631172   215.5372297838   240.3705631172   227.0372297838   283.0372297838   387.5372297838   481.8705631172   600.2038964505   694.5372297838   789.3705631172   849.8705631172   832.3705631172   833.8705631172   817.2038964505   876.8705631172   918.2038964505   892.7038964505   839.2038964505   783.8705631172   765.8705631172   732.2038964505   702.5372297838   667.2038964505   645.0372297838   631.7038964505   603.5372297838   595.0372297838   589.0372297838   574.3705631172   611.7038964505   618.5372297838   600.3705631172   583.2038964505   582.0372297838   591.5372297838   591.5372297838   589.3705631172   585.2038964505   582.5372297838   573.7038964505   566.3705631172   566.3705631172   568.8705631172   563.3705631172   552.8705631172   539.5372297838   529.2038964505   516.2038964505   501.2038964505   488.7038964505   477.3705631172   464.5372297838   455.7038964505   458.7038964505   462.2038964505   470.0372297838   477.3705631172   485.3705631172   491.2038964505   493.2038964505   496.2038964505   502.3705631172   509.3705631172   514.3705631172   518.2038964505   525.8705631172   533.0372297838   541.7038964505   548.2038964505   546.7038964505   544.5372297838   545.2038964505   547.8705631172   551.5372297838   555.0372297838   559.7038964505   563.0372297838   563.7038964505   564.0372297838   565.8705631172   569.7038964505   570.3705631172   570.2038964505   570.3705631172   569.3705631172   567.7038964505   568.2038964505   568.0372297838   564.7038964505   561.0372297838   558.2038964505   553.8705631172   547.5372297838   541.3705631172   534.8705631172   526.3705631172   515.2038964505   501.3705631172   486.7038964505   471.8705631172   457.3705631172   444.3705631172   428.0372297838   407.7038964505   390.3705631172   375.7038964505   360.8705631172   347.5372297838   336.0372297838   324.7038964505   313.5372297838   303.5372297838   291.2038964505   278.7038964505   265.5372297838   251.5372297838   240.5372297838   230.2038964505   219.7038964505   211.2038964505   200.0372297838   186.2038964505   170.7038964505   152.7038964505   133.2038964505   115.0372297838    97.7038964505    78.8705631172    62.8705631172    48.5372297838    36.0372297838    26.2038964505    17.0372297838     5.8705631172    -5.1294368828   -12.1294368828   -16.6294368828   -22.1294368828   -28.2961035495   -35.4627702162   -42.1294368828   -48.1294368828   -53.4627702162   -58.1294368828   -63.2961035495   -67.7961035495   -71.1294368828   -74.7961035495   -81.4627702162   -87.9627702162   -92.4627702162   -99.6294368828  -108.2961035495  -116.9627702162  -122.7961035495  -125.9627702162  -127.6294368828  -131.1294368828  -135.1294368828  -136.7961035495  -137.9627702162  -137.7961035495  -138.9627702162  -139.7961035495  -140.4627702162  -139.1294368828  -137.9627702162  -137.1294368828  -135.6294368828  -131.7961035495  -126.9627702162  -121.6294368828  -117.6294368828  -113.7961035495  -109.4627702162  -104.4627702162   -98.4627702162   -93.4627702162   -88.9627702162   -86.2961035495   -82.7961035495   -80.4627702162   -77.2961035495   -75.4627702162   -74.7961035495   -74.4627702162   -75.2961035495   -76.4627702162   -77.7961035495   -78.4627702162   -77.9627702162   -80.1294368828   -85.9627702162   -89.7961035495   -91.9627702162   -94.4627702162   -96.4627702162   -98.9627702162  -104.2961035495  -108.9627702162  -112.2961035495  -116.2961035495  -119.9627702162  -124.6294368828  -128.9627702162  -130.6294368828  -132.7961035495  -134.6294368828  -135.9627702162  -143.2961035495  -148.7961035495  -153.4627702162  -155.1294368828  -153.6294368828  -149.4627702162  -142.2961035495  -135.6294368828  -129.9627702162  -125.7961035495  -119.7961035495  -111.2961035495  -106.4627702162  -102.9627702162   -99.6294368828   -92.2961035495   -79.6294368828   -69.2961035495   -59.1294368828   -53.1294368828   -51.9627702162   -51.6294368828   -52.7961035495   -55.7961035495   -57.7961035495   -60.7961035495   -63.2961035495   -66.9627702162   -68.9627702162   -65.0588470777   -60.4882572725   -57.5843341340   -56.1804109955   -55.2764878570   -53.5392313851   -51.1353082466   -46.2313851081 
   54.4439551641    60.0488390712    66.3203896450    73.5919402188    78.6968241260    82.8017080331    87.4065919402    92.6781425140    89.8448091807    86.8448091807    83.1781425140    80.0114758473    77.5114758473    76.3448091807    73.3448091807    70.1781425140    68.5114758473    66.6781425140    65.8448091807    64.1781425140    61.6781425140    58.5114758473    55.0114758473    52.5114758473    51.5114758473    51.3448091807    51.5114758473    53.1781425140    53.8448091807    51.6781425140    50.0114758473    49.1781425140    48.5114758473    47.3448091807    42.6781425140    36.3448091807    32.5114758473    31.8448091807    32.5114758473    31.3448091807    29.5114758473    26.0114758473    23.5114758473    20.8448091807    18.0114758473    16.0114758473    14.6781425140    14.3448091807    13.0114758473    10.1781425140    10.1781425140    11.1781425140    10.3448091807     9.3448091807     6.6781425140     3.5114758473     0.8448091807    -0.1551908193    -2.4885241527    -5.8218574860    -6.9885241527    -8.3218574860    -9.9885241527   -11.6551908193   -14.1551908193   -15.3218574860   -17.8218574860   -18.1551908193   -16.4885241527   -16.1551908193   -17.1551908193   -17.3218574860   -17.3218574860   -16.3218574860   -15.4885241527   -15.8218574860   -18.9885241527   -20.8218574860   -19.6551908193   -19.8218574860   -18.9885241527   -16.3218574860   -13.1551908193   -10.9885241527   -11.3218574860   -13.1551908193   -13.1551908193   -12.6551908193   -10.3218574860   -10.3218574860   -10.1551908193    -8.4885241527    -5.1551908193    -3.4885241527    -6.3218574860   -10.1551908193   -12.1551908193   -12.4885241527   -12.4885241527   -14.4885241527   -16.4885241527   -16.8218574860   -17.3218574860   -17.8218574860   -21.3218574860   -24.9885241527   -28.8218574860   -35.9885241527   -43.4885241527   -48.4885241527   -49.8218574860   -47.8218574860   -43.9885241527   -44.8218574860   -48.8218574860   -52.1551908193   -54.4885241527   -56.1551908193   -57.8218574860   -60.8218574860   -63.1551908193   -64.9885241527   -65.1551908193   -61.6551908193   -62.1551908193   -63.1551908193   -65.4885241527   -68.9885241527   -75.1551908193   -78.6551908193   -82.9885241527   -89.1551908193   -92.9885241527   -99.1551908193  -100.9885241527  -102.3218574860  -105.1551908193  -106.3218574860  -106.6551908193  -104.3218574860  -100.8218574860   -96.9885241527   -88.3218574860   -79.4885241527   -74.4885241527   -74.4885241527   -73.9885241527   -70.4885241527   -64.3218574860   -60.6551908193   -65.6551908193   -68.3218574860   -70.8218574860   -81.8218574860  -107.9885241527  -139.3218574860  -150.6551908193  -161.8218574860  -179.8218574860  -196.8218574860  -195.4885241527  -194.8218574860  -204.4885241527  -220.4885241527  -244.3218574860  -279.6551908193  -332.1551908193  -401.4885241527  -451.8218574860  -473.9885241527  -480.6551908193  -482.9885241527  -525.6551908193  -561.9885241527  -591.1551908193  -585.1551908193  -623.8218574860  -671.6551908193  -653.6551908193  -660.9885241527  -633.3218574860  -601.3218574860  -586.6551908193  -483.6551908193  -420.8218574860  -461.6551908193  -500.4885241527  -510.9885241527  -453.4885241527  -447.8218574860  -438.8218574860  -444.1551908193  -476.8218574860  -537.6551908193  -639.8218574860  -711.6551908193  -829.9885241527  -978.9885241527 -1094.4885241527 -1166.4885241527 -1143.1551908193 -1026.1551908193  -902.3218574860  -824.9885241527  -848.3218574860  -832.8218574860  -820.4885241527  -802.6551908193  -786.1551908193  -695.4885241527  -610.3218574860  -552.8218574860  -432.6551908193  -300.8218574860  -176.9885241527  -184.3218574860  -223.6551908193  -287.8218574860  -392.6551908193  -441.8218574860  -524.4885241527  -529.9885241527  -461.6551908193  -393.4885241527  -281.3218574860  -244.8218574860  -219.6551908193  -157.8218574860  -122.4885241527   -61.9885241527    -5.4885241527    85.5114758473   153.5114758473   242.5114758473   335.3448091807   365.6781425140   470.5114758473   513.5114758473   500.8448091807   467.5114758473   443.3448091807   447.8448091807   469.0114758473   460.8448091807   448.1781425140   434.3448091807   435.1781425140   414.3448091807   370.5114758473   324.8448091807   306.8448091807   314.5114758473   338.8448091807   350.1781425140   335.6781425140   315.1781425140   304.8448091807   311.0114758473   302.1781425140   313.3448091807   313.1781425140   319.6781425140   320.5114758473   324.6781425140   334.5114758473   339.6781425140   347.5114758473   353.6781425140   356.8448091807   360.8448091807   366.0114758473   366.5114758473   360.0114758473   353.0114758473   348.0114758473   344.1781425140   339.6781425140   345.1781425140   361.5114758473   368.1781425140   369.1781425140   366.8448091807   363.8448091807   361.3448091807   353.8448091807   348.5114758473   348.8448091807   354.3448091807   360.6781425140   364.1781425140   370.1781425140   378.8448091807   384.5114758473   380.1781425140   372.8448091807   370.6781425140   374.8448091807   383.6781425140   390.3448091807   394.5114758473   405.1781425140   416.5114758473   422.8448091807   427.1781425140   431.5114758473   435.1781425140   438.0114758473   437.8448091807   436.8448091807   434.0114758473   428.8448091807   424.6781425140   419.1781425140   412.0114758473   403.0114758473   394.5114758473   383.6781425140   373.0114758473   364.0114758473   354.5114758473   344.3448091807   336.1781425140   330.1781425140   325.3448091807   319.0114758473   314.1781425140   311.3448091807   308.8448091807   306.1781425140   301.8448091807   296.3448091807   289.1781425140   282.6781425140   272.5114758473   257.5114758473   242.5114758473   228.8448091807   213.5114758473   194.6781425140   173.5114758473   151.1781425140   129.1781425140   110.0114758473    94.6781425140    79.0114758473    63.6781425140    49.6781425140    36.5114758473    21.8448091807     6.3448091807    -6.8218574860   -18.4885241527   -27.9885241527   -36.3218574860   -42.6551908193   -48.3218574860   -51.8218574860   -56.4885241527   -63.9885241527   -75.6551908193   -88.3218574860   -98.8218574860  -109.6551908193  -120.8218574860  -130.3218574860  -135.4885241527  -137.8218574860  -139.6551908193  -142.9885241527  -146.9885241527  -152.6551908193  -158.1551908193  -161.6551908193  -165.4885241527  -169.8218574860  -174.4885241527  -176.9885241527  -178.8218574860  -180.3218574860  -181.8218574860  -185.8218574860  -190.3218574860  -194.4885241527  -199.4885241527  -204.9885241527  -210.9885241527  -214.8218574860  -216.1551908193  -219.3218574860  -221.8218574860  -224.6551908193  -224.9885241527  -224.8218574860  -226.1551908193  -226.9885241527  -225.6551908193  -220.9885241527  -215.4885241527  -211.1551908193  -207.1551908193  -201.8218574860  -196.4885241527  -192.9885241527  -191.3218574860  -187.8218574860  -185.6551908193  -180.6551908193  -174.1551908193  -168.3218574860  -163.4885241527  -157.8218574860  -151.9885241527  -145.9885241527  -141.8218574860  -138.3218574860  -134.9885241527  -132.4885241527  -126.3218574860  -118.1551908193  -111.1551908193  -106.3218574860   -99.6551908193   -93.4885241527   -88.4885241527   -83.4885241527   -78.9885241527   -75.1551908193   -71.6551908193   -68.9885241527   -66.4885241527   -63.9885241527   -60.1551908193   -56.1551908193   -52.6551908193   -50.6551908193   -48.4885241527   -45.3218574860   -43.1551908193   -41.4885241527   -41.1551908193   -43.6551908193   -41.4885241527   -38.1551908193   -38.6551908193   -41.9885241527   -43.3218574860   -42.8218574860   -42.4885241527   -42.3218574860   -43.8218574860   -44.3218574860   -43.4885241527   -40.9885241527   -37.8218574860   -36.3218574860   -34.8218574860   -33.6551908193   -34.4885241527   -34.6551908193   -32.6551908193   -28.6551908193   -26.4885241527   -25.6551908193   -26.1551908193   -28.1551908193   -30.9885241527   -33.8218574860   -37.1551908193   -42.1551908193   -46.4885241527   -49.1551908193   -50.6551908193   -49.9885241527   -47.9267413931   -47.5316253003   -45.8031758740   -42.4080597812   -38.5129436883   -35.6178275954   -32.8893781692   -29.1609287430 
   55.7733812950    65.3963495870    74.8526512124    84.8089528377    94.4319211298   103.2215560885   112.6778577138   121.9674926725   122.4674926725   121.4674926725   121.6341593392   120.4674926725   119.6341593392   116.4674926725   113.4674926725   111.9674926725   110.1341593392   107.8008260058   104.1341593392    99.4674926725    94.4674926725    90.4674926725    86.3008260058    81.4674926725    77.4674926725    76.1341593392    74.1341593392    72.8008260058    70.6341593392    71.3008260058    71.8008260058    72.1341593392    70.4674926725    66.6341593392    62.9674926725    59.1341593392    56.8008260058    55.4674926725    53.9674926725    51.9674926725    50.8008260058    50.1341593392    50.9674926725    51.3008260058    52.6341593392    51.1341593392    50.8008260058    48.6341593392    47.9674926725    48.4674926725    49.8008260058    52.1341593392    53.8008260058    54.1341593392    54.3008260058    55.4674926725    56.9674926725    59.6341593392    61.9674926725    61.4674926725    60.3008260058    61.9674926725    63.3008260058    64.6341593392    64.8008260058    65.6341593392    68.1341593392    70.1341593392    71.1341593392    70.9674926725    69.9674926725    70.3008260058    71.8008260058    70.1341593392    66.6341593392    65.8008260058    65.8008260058    64.3008260058    62.3008260058    62.3008260058    62.6341593392    63.1341593392    62.9674926725    62.3008260058    61.4674926725    65.3008260058    70.9674926725    75.3008260058    75.4674926725    82.3008260058    88.3008260058    90.9674926725    93.4674926725    97.6341593392   100.8008260058   103.1341593392   106.3008260058   108.9674926725   109.4674926725   109.8008260058   111.1341593392   109.8008260058   106.9674926725   103.6341593392   102.4674926725    97.4674926725    95.4674926725    97.1341593392    98.8008260058    98.4674926725    98.1341593392    97.6341593392    96.4674926725    93.6341593392    92.1341593392    90.9674926725    91.3008260058    89.9674926725    88.1341593392    86.4674926725    85.6341593392    85.4674926725    85.6341593392    84.9674926725    83.4674926725    80.4674926725    77.3008260058    73.6341593392    71.6341593392    74.4674926725    77.9674926725    80.8008260058    79.6341593392    78.8008260058    78.3008260058    78.8008260058    80.3008260058    81.6341593392    82.6341593392    81.8008260058    81.3008260058    83.4674926725    86.9674926725    90.9674926725    92.9674926725    92.6341593392    91.6341593392    92.3008260058    94.8008260058    97.4674926725    93.6341593392    81.6341593392    68.4674926725    48.3008260058    26.3008260058    19.8008260058     4.8008260058   -14.3658406608   -23.6991739942   -43.6991739942  -111.0325073275  -214.3658406608  -317.3658406608  -368.8658406608  -364.8658406608  -388.5325073275  -454.0325073275  -562.3658406608  -684.3658406608  -753.5325073275  -826.5325073275  -894.5325073275  -961.5325073275 -1054.5325073275 -1083.8658406608 -1089.1991739942 -1000.1991739942  -869.6991739942  -768.0325073275  -714.3658406608  -732.5325073275  -702.5325073275  -613.0325073275  -486.5325073275  -376.8658406608  -350.6991739942  -386.0325073275  -386.8658406608  -339.8658406608  -232.0325073275  -224.8658406608  -234.1991739942  -333.0325073275  -498.1991739942  -600.1991739942  -747.0325073275  -833.8658406608  -992.8658406608 -1121.5325073275 -1105.5325073275 -1050.3658406608 -1007.5325073275  -814.3658406608  -669.1991739942  -637.3658406608  -630.5325073275  -584.5325073275  -498.6991739942  -347.0325073275  -151.5325073275    18.4674926725   218.8008260058   286.4674926725   466.4674926725   563.8008260058   537.1341593392   519.8008260058   553.6341593392   530.9674926725   527.8008260058   494.4674926725   453.9674926725   456.8008260058   419.1341593392   377.6341593392   370.9674926725   370.4674926725   383.4674926725   477.6341593392   505.4674926725   567.6341593392   615.4674926725   645.3008260058   662.1341593392   645.4674926725   600.6341593392   657.3008260058   719.1341593392   720.4674926725   734.4674926725   735.1341593392   710.6341593392   645.6341593392   567.6341593392   511.3008260058   474.4674926725   463.6341593392   469.6341593392   478.6341593392   497.3008260058   518.9674926725   544.6341593392   572.3008260058   593.3008260058   614.1341593392   624.8008260058   624.8008260058   627.1341593392   650.9674926725   682.4674926725   699.6341593392   701.4674926725   681.3008260058   650.4674926725   618.9674926725   587.3008260058   560.4674926725   533.9674926725   504.6341593392   480.4674926725   462.8008260058   448.4674926725   437.8008260058   429.1341593392   424.8008260058   427.4674926725   432.6341593392   437.9674926725   446.1341593392   457.6341593392   470.9674926725   485.1341593392   493.4674926725   496.9674926725   501.3008260058   500.9674926725   503.3008260058   504.4674926725   507.6341593392   513.6341593392   519.8008260058   521.4674926725   522.9674926725   525.1341593392   528.9674926725   531.4674926725   529.8008260058   526.4674926725   526.6341593392   534.3008260058   546.3008260058   560.9674926725   572.1341593392   581.6341593392   588.3008260058   592.1341593392   593.8008260058   594.4674926725   593.3008260058   590.3008260058   584.4674926725   577.9674926725   570.4674926725   563.9674926725   558.1341593392   549.1341593392   536.9674926725   522.3008260058   503.3008260058   483.9674926725   465.9674926725   449.3008260058   432.3008260058   413.3008260058   393.9674926725   377.4674926725   363.6341593392   349.6341593392   334.8008260058   320.1341593392   303.6341593392   285.8008260058   268.9674926725   253.3008260058   238.8008260058   224.4674926725   211.3008260058   198.8008260058   186.4674926725   176.6341593392   167.1341593392   156.9674926725   145.4674926725   133.1341593392   120.8008260058   109.1341593392    98.9674926725    88.8008260058    76.3008260058    62.8008260058    52.1341593392    42.1341593392    32.4674926725    20.4674926725    10.4674926725     1.8008260058    -4.8658406608   -10.6991739942   -16.8658406608   -23.6991739942   -28.8658406608   -33.3658406608   -38.1991739942   -41.3658406608   -43.3658406608   -43.8658406608   -44.6991739942   -45.0325073275   -48.5325073275   -51.1991739942   -53.8658406608   -55.6991739942   -61.0325073275   -67.0325073275   -73.0325073275   -77.0325073275   -80.3658406608   -84.0325073275   -88.6991739942   -93.8658406608   -97.3658406608  -100.0325073275  -102.0325073275  -104.6991739942  -105.3658406608  -104.1991739942  -102.5325073275  -103.6991739942  -103.5325073275  -103.1991739942  -101.6991739942   -99.3658406608   -97.6991739942   -97.8658406608   -96.1991739942   -94.0325073275   -90.5325073275   -88.3658406608   -86.6991739942   -83.8658406608   -81.1991739942   -79.1991739942   -76.6991739942   -73.1991739942   -68.5325073275   -64.6991739942   -58.1991739942   -51.6991739942   -45.1991739942   -38.0325073275   -32.1991739942   -26.5325073275   -23.6991739942   -21.8658406608   -23.0325073275   -25.5325073275   -27.1991739942   -27.1991739942   -26.6991739942   -25.1991739942   -24.1991739942   -21.6991739942   -22.0325073275   -23.1991739942   -25.0325073275   -25.5325073275   -25.5325073275   -26.3658406608   -24.8658406608   -23.5325073275   -20.1991739942   -15.5325073275   -11.0325073275    -9.1991739942   -10.0325073275   -12.6991739942   -16.1991739942   -21.8658406608   -28.3658406608   -33.6991739942   -36.1991739942   -37.1991739942   -35.8658406608   -33.6991739942   -36.1991739942   -37.5325073275   -38.1991739942   -39.8658406608   -42.1991739942   -45.3658406608   -47.5325073275   -48.6991739942   -48.8658406608   -46.8658406608   -44.3658406608   -42.8658406608   -42.5325073275   -45.6991739942   -50.8658406608   -57.1991739942   -59.0325073275   -59.6991739942   -61.6991739942   -62.3658406608   -63.1991739942   -62.1991739942   -60.3658406608   -58.5325073275   -58.5325073275   -60.0325073275   -62.6991739942   -64.8658406608   -64.0325073275   -60.3221422862   -56.2784439115   -51.2347455369   -47.5243804956   -44.8140154543   -40.7703170797   -37.3932853717   -33.3495869971 
  -18.8129496403   -19.1995736744   -18.0861977085   -15.9728217426   -13.8594457767   -12.4127364775   -11.2993605116    -9.8526512124    -6.1859845457    -2.8526512124     0.4806821210     4.3140154543     8.8140154543    12.1473487876    13.9806821210    14.4806821210    14.3140154543    14.3140154543    12.6473487876     7.9806821210     4.3140154543     3.3140154543     3.6473487876     3.8140154543     1.8140154543    -1.6859845457    -5.5193178790    -8.8526512124   -11.1859845457   -16.0193178790   -21.1859845457   -24.0193178790   -25.0193178790   -27.5193178790   -29.8526512124   -31.3526512124   -33.8526512124   -36.3526512124   -39.8526512124   -43.1859845457   -44.6859845457   -42.6859845457   -39.5193178790   -37.0193178790   -36.6859845457   -35.0193178790   -31.5193178790   -28.1859845457   -27.6859845457   -25.8526512124   -24.5193178790   -22.3526512124   -19.3526512124   -18.8526512124   -19.1859845457   -19.6859845457   -21.3526512124   -25.1859845457   -27.1859845457   -27.1859845457   -28.5193178790   -30.1859845457   -32.8526512124   -35.8526512124   -37.0193178790   -38.3526512124   -38.6859845457   -38.1859845457   -39.5193178790   -40.5193178790   -42.5193178790   -44.6859845457   -45.8526512124   -46.5193178790   -49.6859845457   -53.5193178790   -54.5193178790   -54.3526512124   -54.8526512124   -55.6859845457   -57.6859845457   -58.8526512124   -57.5193178790   -55.8526512124   -54.6859845457   -54.0193178790   -49.5193178790   -45.3526512124   -42.5193178790   -41.1859845457   -40.1859845457   -39.1859845457   -38.3526512124   -38.0193178790   -37.6859845457   -37.5193178790   -36.5193178790   -36.0193178790   -37.5193178790   -39.3526512124   -41.0193178790   -42.0193178790   -41.6859845457   -40.5193178790   -39.0193178790   -37.3526512124   -34.3526512124   -31.8526512124   -29.0193178790   -26.5193178790   -23.8526512124   -20.5193178790   -17.0193178790   -13.8526512124   -12.3526512124   -11.8526512124    -9.5193178790    -5.6859845457    -4.3526512124    -4.5193178790    -4.8526512124    -3.3526512124    -1.6859845457     0.4806821210     0.6473487876     0.3140154543     0.8140154543     0.3140154543    -1.0193178790    -1.6859845457    -0.6859845457     3.4806821210     6.6473487876     6.8140154543     5.4806821210     5.9806821210     8.1473487876    10.9806821210    12.8140154543    12.6473487876    12.8140154543    14.6473487876    16.3140154543    19.8140154543    23.8140154543    25.4806821210    26.1473487876    25.6473487876    22.4806821210    21.9806821210    21.9806821210    20.9806821210    17.3140154543     8.8140154543     3.1473487876   -21.3526512124   -33.0193178790   -34.8526512124   -42.8526512124   -42.3526512124   -46.8526512124   -44.6859845457   -65.8526512124   -91.5193178790  -131.6859845457  -142.6859845457  -148.5193178790  -188.1859845457  -226.5193178790  -244.8526512124  -314.6859845457  -379.1859845457  -391.8526512124  -382.5193178790  -402.6859845457  -455.3526512124  -476.8526512124  -517.3526512124  -538.5193178790  -513.8526512124  -452.5193178790  -477.8526512124  -540.8526512124  -521.1859845457  -499.1859845457  -536.1859845457  -473.3526512124  -395.0193178790  -450.1859845457  -542.3526512124  -611.5193178790  -618.3526512124  -616.8526512124  -620.1859845457  -604.5193178790  -648.1859845457  -710.5193178790  -782.3526512124  -843.3526512124  -968.6859845457 -1055.5193178790 -1040.0193178790 -1043.5193178790 -1018.8526512124  -961.5193178790  -913.1859845457  -818.5193178790  -773.8526512124  -738.1859845457  -660.5193178790  -625.5193178790  -636.6859845457  -618.3526512124  -510.5193178790  -375.8526512124  -209.6859845457   -89.3526512124   -29.3526512124   -11.1859845457   -56.0193178790   -48.6859845457    -8.3526512124     6.6473487876    36.6473487876    23.9806821210   -16.8526512124    -3.3526512124    71.3140154543   116.6473487876   150.1473487876   192.6473487876   217.3140154543   244.6473487876   264.9806821210   286.8140154543   337.9806821210   369.8140154543   372.3140154543   368.1473487876   371.4806821210   393.1473487876   412.3140154543   399.8140154543   397.6473487876   394.4806821210   380.6473487876   344.8140154543   316.9806821210   300.6473487876   291.8140154543   290.9806821210   294.6473487876   301.3140154543   314.4806821210   324.6473487876   323.3140154543   320.1473487876   324.6473487876   336.3140154543   336.3140154543   335.3140154543   332.9806821210   339.9806821210   342.3140154543   336.9806821210   328.9806821210   323.4806821210   324.4806821210   326.6473487876   336.8140154543   350.6473487876   361.6473487876   379.8140154543   397.1473487876   411.9806821210   431.8140154543   448.4806821210   463.1473487876   477.9806821210   491.8140154543   505.4806821210   523.9806821210   542.8140154543   555.3140154543   564.9806821210   567.6473487876   566.8140154543   570.9806821210   570.3140154543   570.6473487876   571.3140154543   573.1473487876   581.6473487876   593.9806821210   605.6473487876   616.1473487876   627.9806821210   637.3140154543   643.9806821210   650.1473487876   657.9806821210   668.4806821210   680.8140154543   690.4806821210   696.6473487876   698.9806821210   704.4806821210   707.4806821210   707.3140154543   701.8140154543   691.6473487876   681.6473487876   670.1473487876   660.3140154543   651.4806821210   639.9806821210   627.1473487876   610.3140154543   588.8140154543   564.8140154543   541.8140154543   521.3140154543   496.1473487876   468.6473487876   439.4806821210   411.6473487876   386.6473487876   362.1473487876   336.6473487876   308.1473487876   276.6473487876   246.1473487876   215.4806821210   187.9806821210   164.6473487876   143.4806821210   120.3140154543    96.4806821210    73.9806821210    52.4806821210    32.9806821210    14.1473487876    -1.6859845457   -15.5193178790   -30.0193178790   -43.1859845457   -54.1859845457   -61.8526512124   -67.3526512124   -72.0193178790   -78.5193178790   -84.8526512124   -88.5193178790   -90.0193178790   -92.8526512124   -95.5193178790   -98.0193178790   -97.5193178790   -99.6859845457  -105.3526512124  -111.8526512124  -117.6859845457  -122.1859845457  -128.5193178790  -135.6859845457  -145.0193178790  -153.6859845457  -160.0193178790  -169.0193178790  -180.0193178790  -189.3526512124  -197.0193178790  -201.6859845457  -206.5193178790  -211.3526512124  -216.0193178790  -218.0193178790  -218.3526512124  -218.3526512124  -217.1859845457  -214.5193178790  -210.6859845457  -205.0193178790  -202.5193178790  -200.0193178790  -197.5193178790  -195.8526512124  -194.6859845457  -195.0193178790  -197.5193178790  -199.8526512124  -199.8526512124  -199.0193178790  -201.5193178790  -206.3526512124  -212.0193178790  -219.5193178790  -226.3526512124  -232.5193178790  -236.6859845457  -238.6859845457  -238.1859845457  -236.1859845457  -234.3526512124  -232.5193178790  -230.0193178790  -226.6859845457  -221.6859845457  -217.3526512124  -210.6859845457  -202.3526512124  -193.5193178790  -182.6859845457  -172.1859845457  -165.0193178790  -161.1859845457  -157.3526512124  -154.5193178790  -151.3526512124  -150.5193178790  -151.8526512124  -152.6859845457  -152.6859845457  -155.3526512124  -160.3526512124  -167.5193178790  -174.1859845457  -179.1859845457  -182.6859845457  -184.5193178790  -184.8526512124  -182.3526512124  -179.0193178790  -175.5193178790  -174.1859845457  -171.5193178790  -168.1859845457  -166.1859845457  -165.8526512124  -164.8526512124  -162.5193178790  -159.6859845457  -157.5193178790  -154.6859845457  -153.3526512124  -153.5193178790  -153.0193178790  -152.5193178790  -152.8526512124  -154.0193178790  -155.0193178790  -155.0193178790  -154.0193178790  -151.0193178790  -150.1859845457  -155.8526512124  -159.8526512124  -157.3526512124  -154.1859845457  -151.8526512124  -148.8526512124  -146.0193178790  -142.1859845457  -138.0193178790  -134.8526512124  -133.0193178790  -131.3526512124  -130.0193178790  -127.1859845457  -125.3526512124  -119.8526512124  -106.3526512124   -93.5193178790   -84.1326938449   -75.9127364775   -69.0261124434   -63.1394884093   -57.0861977085   -52.6995736744   -48.8129496403   -43.7596589395 
  -40.6637309848   -44.4597010942   -46.7556712036   -49.0516413131   -51.3476114225   -52.8102481986   -53.2728849747   -53.2355217507   -50.0688550841   -46.5688550841   -42.0688550841   -37.4021884174   -34.4021884174   -33.9021884174   -31.7355217507   -27.5688550841   -22.5688550841   -20.9021884174   -22.2355217507   -22.5688550841   -22.0688550841   -23.5688550841   -27.4021884174   -32.7355217507   -36.9021884174   -38.2355217507   -39.2355217507   -41.2355217507   -42.9021884174   -40.9021884174   -37.9021884174   -35.4021884174   -35.4021884174   -34.4021884174   -31.9021884174   -29.7355217507   -29.0688550841   -28.4021884174   -28.0688550841   -27.0688550841   -25.4021884174   -25.2355217507   -26.2355217507   -28.4021884174   -28.4021884174   -28.9021884174   -29.4021884174   -32.5688550841   -35.5688550841   -37.4021884174   -37.4021884174   -39.0688550841   -42.0688550841   -44.2355217507   -43.5688550841   -40.4021884174   -37.0688550841   -34.9021884174   -33.7355217507   -31.7355217507   -30.0688550841   -28.0688550841   -26.5688550841   -22.2355217507   -15.2355217507    -7.9021884174    -2.2355217507     2.9311449159     8.5978115826    14.0978115826    17.9311449159    19.9311449159    18.9311449159    16.7644782493    15.4311449159    17.7644782493    18.9311449159    19.7644782493    20.0978115826    18.9311449159    15.2644782493    11.0978115826     5.0978115826     0.7644782493    -1.9021884174    -1.4021884174    -0.2355217507    -0.7355217507    -1.5688550841    -1.7355217507    -0.7355217507    -1.9021884174    -4.0688550841    -7.7355217507   -11.0688550841   -12.2355217507   -12.0688550841   -12.4021884174   -11.4021884174   -11.4021884174   -11.5688550841   -13.7355217507   -17.2355217507   -18.2355217507   -16.2355217507   -12.4021884174   -10.2355217507    -9.7355217507    -8.4021884174    -5.2355217507    -1.2355217507     0.9311449159     2.2644782493     5.2644782493     6.4311449159    10.0978115826    14.2644782493    16.5978115826    22.0978115826    26.2644782493    26.9311449159    21.9311449159    13.2644782493     3.7644782493    -4.0688550841    -9.4021884174   -14.5688550841   -20.5688550841   -27.5688550841   -34.5688550841   -36.5688550841   -39.5688550841   -43.5688550841   -46.7355217507   -53.0688550841   -58.7355217507   -59.9021884174   -58.9021884174   -53.7355217507   -45.4021884174   -38.4021884174   -34.7355217507   -34.0688550841   -34.0688550841   -33.5688550841   -33.4021884174   -35.5688550841   -39.4021884174   -44.2355217507   -48.4021884174   -51.9021884174   -53.9021884174   -59.2355217507   -62.2355217507   -62.9021884174   -62.5688550841   -62.2355217507   -63.5688550841   -65.5688550841   -64.7355217507   -63.7355217507   -62.9021884174   -62.0688550841   -60.4021884174   -55.7355217507   -60.5688550841   -79.4021884174   -94.9021884174  -107.9021884174  -130.4021884174  -154.0688550841  -169.5688550841  -182.4021884174  -204.5688550841  -224.5688550841  -258.4021884174  -289.7355217507  -328.5688550841  -370.2355217507  -398.5688550841  -448.2355217507  -460.5688550841  -465.5688550841  -501.5688550841  -552.7355217507  -597.9021884174  -658.4021884174  -745.2355217507  -817.7355217507  -846.2355217507  -799.0688550841  -728.9021884174  -717.0688550841  -764.4021884174  -762.9021884174  -794.0688550841  -820.2355217507  -894.9021884174  -936.5688550841 -1001.0688550841 -1016.2355217507  -982.2355217507  -954.2355217507  -923.7355217507  -867.9021884174  -861.7355217507  -918.9021884174 -1042.7355217507 -1057.0688550841 -1055.9021884174 -1118.5688550841 -1104.4021884174 -1063.2355217507 -1024.9021884174  -992.7355217507  -884.0688550841  -834.4021884174  -805.5688550841  -788.5688550841  -699.7355217507  -632.4021884174  -567.0688550841  -536.7355217507  -480.0688550841  -420.7355217507  -302.4021884174  -195.0688550841  -141.2355217507  -107.2355217507   -86.4021884174   -25.9021884174    41.2644782493   146.9311449159   210.7644782493   300.7644782493   302.0978115826   288.9311449159   304.7644782493   308.9311449159   321.7644782493   271.4311449159   258.5978115826   297.4311449159   339.9311449159   396.7644782493   484.9311449159   508.4311449159   489.7644782493   452.0978115826   427.2644782493   396.4311449159   402.5978115826   392.0978115826   377.7644782493   403.5978115826   448.7644782493   501.7644782493   509.4311449159   484.2644782493   455.5978115826   423.4311449159   397.7644782493   376.2644782493   359.5978115826   345.9311449159   336.4311449159   341.4311449159   340.0978115826   350.0978115826   352.7644782493   352.4311449159   357.2644782493   360.0978115826   359.2644782493   366.0978115826   369.5978115826   368.7644782493   367.9311449159   365.2644782493   365.4311449159   369.5978115826   380.5978115826   385.5978115826   387.5978115826   388.0978115826   391.7644782493   392.7644782493   391.0978115826   391.5978115826   396.4311449159   404.5978115826   412.5978115826   420.5978115826   427.9311449159   439.9311449159   455.5978115826   469.5978115826   477.9311449159   488.4311449159   501.0978115826   515.9311449159   531.0978115826   544.5978115826   555.7644782493   567.5978115826   577.9311449159   584.9311449159   591.7644782493   598.7644782493   604.7644782493   609.0978115826   608.9311449159   606.4311449159   600.2644782493   594.5978115826   589.5978115826   580.2644782493   565.7644782493   554.7644782493   544.9311449159   534.5978115826   524.7644782493   515.9311449159   505.7644782493   494.4311449159   484.2644782493   473.2644782493   458.4311449159   441.0978115826   424.9311449159   408.2644782493   389.7644782493   372.9311449159   358.7644782493   342.0978115826   322.0978115826   297.2644782493   271.5978115826   246.7644782493   224.5978115826   202.9311449159   179.2644782493   153.9311449159   131.2644782493   109.5978115826    88.0978115826    68.4311449159    50.9311449159    32.9311449159    15.5978115826     0.5978115826   -11.5688550841   -19.2355217507   -27.5688550841   -36.5688550841   -47.5688550841   -56.4021884174   -65.0688550841   -72.9021884174   -80.9021884174   -86.2355217507   -88.7355217507   -92.4021884174   -96.9021884174  -101.0688550841  -106.5688550841  -114.2355217507  -120.5688550841  -127.5688550841  -133.5688550841  -138.7355217507  -144.7355217507  -151.4021884174  -155.7355217507  -158.2355217507  -159.0688550841  -160.5688550841  -164.5688550841  -167.7355217507  -170.5688550841  -171.5688550841  -172.0688550841  -171.9021884174  -172.7355217507  -174.0688550841  -173.5688550841  -172.9021884174  -171.9021884174  -173.0688550841  -174.4021884174  -175.0688550841  -174.4021884174  -174.4021884174  -173.4021884174  -171.5688550841  -170.4021884174  -169.9021884174  -169.7355217507  -169.5688550841  -168.7355217507  -166.0688550841  -166.0688550841  -167.0688550841  -167.9021884174  -166.4021884174  -165.0688550841  -165.7355217507  -167.2355217507  -168.4021884174  -169.4021884174  -170.0688550841  -168.7355217507  -168.4021884174  -167.7355217507  -168.2355217507  -168.7355217507  -170.4021884174  -170.9021884174  -171.5688550841  -171.4021884174  -170.0688550841  -168.5688550841  -165.4021884174  -162.4021884174  -157.2355217507  -153.4021884174  -151.2355217507  -151.4021884174  -151.0688550841  -149.5688550841  -145.0688550841  -140.2355217507  -136.0688550841  -133.2355217507  -129.5688550841  -124.4021884174  -121.5688550841  -120.2355217507  -119.5688550841  -119.0688550841  -119.5688550841  -119.0688550841  -118.2355217507  -118.9021884174  -118.7355217507  -119.5688550841  -121.0688550841  -123.5688550841  -125.2355217507  -127.4021884174  -130.4021884174  -134.2355217507  -136.7355217507  -138.7355217507  -140.0688550841  -140.0688550841  -139.5688550841  -139.9021884174  -141.0688550841  -139.7355217507  -139.0688550841  -137.5688550841  -137.0688550841  -135.4021884174  -133.4021884174  -130.7355217507  -128.0688550841  -127.0688550841  -126.4021884174  -124.2355217507  -120.9021884174  -117.9021884174  -114.9021884174  -107.4395516413   -98.8102481986   -90.5142780891   -82.0516413131   -74.5890045370   -67.1263677609   -60.1637309848   -53.7010942087 
    6.8019246191     4.8354717990     1.5356856456    -1.5974338412    -3.0638866613    -3.5303394814    -4.1634589682    -5.2965784549    -7.9632451216   -11.7965784549   -15.4632451216   -18.6299117883   -22.1299117883   -26.1299117883   -28.4632451216   -28.7965784549   -27.1299117883   -25.6299117883   -22.4632451216   -20.2965784549   -18.9632451216   -18.9632451216   -18.4632451216   -18.4632451216   -16.4632451216   -12.7965784549   -10.2965784549    -8.6299117883    -7.2965784549    -6.1299117883    -6.1299117883    -6.6299117883    -9.1299117883   -11.1299117883   -12.1299117883   -11.2965784549   -10.2965784549    -8.9632451216    -7.9632451216    -5.7965784549    -4.1299117883    -5.1299117883    -6.2965784549    -8.4632451216    -9.1299117883    -8.2965784549    -6.6299117883    -5.1299117883    -1.1299117883     4.2034215451     7.8700882117     9.8700882117     9.7034215451     6.5367548784     1.8700882117    -0.9632451216    -4.1299117883    -6.2965784549    -9.1299117883   -10.7965784549   -12.4632451216   -15.1299117883   -18.7965784549   -21.7965784549   -26.2965784549   -30.7965784549   -33.9632451216   -37.7965784549   -39.9632451216   -38.4632451216   -34.6299117883   -32.2965784549   -30.9632451216   -29.7965784549   -27.2965784549   -22.4632451216   -16.7965784549   -12.6299117883    -9.6299117883    -6.2965784549    -3.6299117883    -2.9632451216    -3.9632451216    -2.9632451216    -3.6299117883    -3.6299117883    -4.7965784549    -7.7965784549    -9.4632451216   -10.4632451216   -11.1299117883   -14.2965784549   -18.4632451216   -21.9632451216   -23.4632451216   -25.1299117883   -24.9632451216   -24.6299117883   -23.1299117883   -21.6299117883   -19.6299117883   -18.4632451216   -17.4632451216   -14.1299117883   -11.6299117883    -8.2965784549    -5.2965784549    -1.9632451216     0.3700882117     2.5367548784     4.0367548784     5.5367548784     6.0367548784     7.2034215451     7.0367548784     4.8700882117     3.8700882117     1.8700882117     1.5367548784     0.7034215451     0.5367548784     0.0367548784    -0.2965784549     0.3700882117     1.2034215451     3.0367548784     3.2034215451     1.7034215451    -0.4632451216    -2.2965784549    -1.4632451216     1.8700882117     6.0367548784     9.2034215451     8.3700882117     9.8700882117    14.7034215451    18.7034215451    19.2034215451    14.3700882117    10.0367548784     4.3700882117    -0.1299117883     3.8700882117     7.0367548784     3.7034215451    -5.1299117883   -20.2965784549   -48.6299117883   -94.6299117883  -132.1299117883  -163.1299117883  -176.2965784549  -190.6299117883  -207.4632451216  -211.2965784549  -241.9632451216  -251.7965784549  -246.1299117883  -241.7965784549  -228.6299117883  -248.1299117883  -350.9632451216  -437.2965784549  -509.4632451216  -580.7965784549  -605.9632451216  -584.2965784549  -606.2965784549  -643.9632451216  -645.2965784549  -660.1299117883  -654.4632451216  -689.9632451216  -768.4632451216  -818.4632451216  -843.4632451216  -864.7965784549  -821.1299117883  -771.9632451216  -757.2965784549  -689.9632451216  -671.6299117883  -699.4632451216  -674.4632451216  -696.7965784549  -784.7965784549  -834.9632451216  -908.7965784549  -898.7965784549  -863.4632451216  -919.6299117883 -1034.2965784549 -1094.2965784549 -1106.9632451216 -1136.1299117883 -1158.6299117883 -1149.4632451216 -1078.2965784549  -992.4632451216  -942.2965784549  -820.6299117883  -684.9632451216  -566.9632451216  -434.2965784549  -395.4632451216  -357.1299117883  -263.1299117883  -134.7965784549   -46.4632451216     8.2034215451    36.8700882117    70.7034215451    52.0367548784     5.8700882117   -44.9632451216  -101.7965784549  -189.7965784549  -258.4632451216  -300.9632451216  -323.6299117883  -311.1299117883  -268.4632451216  -187.4632451216   -99.4632451216     6.3700882117   114.2034215451   242.3700882117   389.7034215451   512.2034215451   592.5367548784   645.5367548784   705.0367548784   784.0367548784   859.7034215451   892.8700882117   913.5367548784   934.7034215451   911.2034215451   840.0367548784   759.8700882117   683.3700882117   629.2034215451   584.0367548784   541.3700882117   506.2034215451   474.3700882117   448.8700882117   428.8700882117   414.0367548784   403.7034215451   394.8700882117   390.0367548784   377.7034215451   374.7034215451   381.8700882117   388.7034215451   391.8700882117   379.8700882117   364.2034215451   352.8700882117   343.3700882117   336.5367548784   334.8700882117   332.5367548784   330.0367548784   327.3700882117   325.3700882117   327.3700882117   333.3700882117   348.7034215451   366.0367548784   374.8700882117   388.0367548784   404.5367548784   422.3700882117   432.0367548784   444.2034215451   453.7034215451   460.7034215451   470.2034215451   481.3700882117   493.3700882117   504.0367548784   516.0367548784   529.3700882117   543.0367548784   557.5367548784   576.8700882117   596.7034215451   613.3700882117   630.0367548784   648.8700882117   664.7034215451   682.5367548784   698.7034215451   711.8700882117   721.7034215451   729.7034215451   737.0367548784   742.5367548784   746.2034215451   746.7034215451   740.8700882117   730.8700882117   717.3700882117   702.5367548784   683.5367548784   664.7034215451   647.7034215451   629.2034215451   610.5367548784   590.5367548784   570.7034215451   550.7034215451   530.2034215451   506.5367548784   478.2034215451   449.3700882117   422.5367548784   396.3700882117   371.2034215451   347.7034215451   327.2034215451   306.8700882117   287.5367548784   268.0367548784   246.2034215451   224.7034215451   204.0367548784   185.2034215451   166.2034215451   149.5367548784   135.2034215451   123.0367548784   113.2034215451   103.7034215451    93.5367548784    80.5367548784    66.3700882117    51.3700882117    37.2034215451    22.3700882117     9.3700882117    -2.6299117883   -14.7965784549   -27.7965784549   -40.4632451216   -52.7965784549   -62.6299117883   -71.7965784549   -80.9632451216   -90.1299117883   -97.7965784549  -102.7965784549  -107.4632451216  -110.9632451216  -116.7965784549  -121.6299117883  -126.4632451216  -129.7965784549  -132.7965784549  -135.2965784549  -135.6299117883  -134.7965784549  -134.4632451216  -135.6299117883  -137.7965784549  -138.7965784549  -139.1299117883  -140.2965784549  -141.9632451216  -145.4632451216  -148.9632451216  -151.4632451216  -152.4632451216  -153.4632451216  -155.4632451216  -158.4632451216  -162.2965784549  -165.2965784549  -165.2965784549  -163.7965784549  -162.4632451216  -161.9632451216  -161.6299117883  -160.7965784549  -160.4632451216  -156.6299117883  -150.1299117883  -142.9632451216  -137.7965784549  -137.1299117883  -135.2965784549  -129.2965784549  -122.4632451216  -117.1299117883  -116.4632451216  -116.9632451216  -115.9632451216  -113.7965784549  -112.1299117883  -114.2965784549  -114.7965784549  -114.4632451216  -114.6299117883  -116.1299117883  -116.4632451216  -113.1299117883  -109.1299117883  -108.7965784549  -110.4632451216  -113.6299117883  -115.7965784549  -115.7965784549  -113.9632451216  -113.4632451216  -113.9632451216  -113.4632451216  -112.9632451216  -114.4632451216  -116.2965784549  -117.2965784549  -118.2965784549  -118.9632451216  -119.1299117883  -118.7965784549  -118.1299117883  -115.9632451216  -113.4632451216  -110.6299117883  -109.1299117883  -106.4632451216  -102.9632451216   -96.4632451216   -89.1299117883   -82.4632451216   -77.4632451216   -74.6299117883   -72.4632451216   -72.1299117883   -71.9632451216   -71.2965784549   -70.1299117883   -69.9632451216   -69.9632451216   -71.2965784549   -74.4632451216   -79.9632451216   -85.4632451216   -90.4632451216   -96.2965784549  -101.9632451216  -106.2965784549  -108.6299117883  -109.7965784549  -108.7965784549  -108.7965784549  -108.4632451216  -107.1299117883  -104.9632451216  -101.9632451216  -100.4632451216   -97.6299117883   -92.6299117883   -87.7965784549   -84.7965784549   -82.6299117883   -80.9632451216   -79.6299117883   -76.4632451216   -74.4632451216   -73.4632451216   -67.9967923015   -63.3636728147   -59.2305533280   -54.9307671745   -50.7976476878   -45.4978615343   -41.0314087142   -37.0649558941 
   -2.3551189521    -2.4871692061    -2.1192194600    -2.9179363806    -4.0499866346    -5.8487035552    -6.6474204758    -7.9461373964   -10.6128040631   -11.9461373964   -11.6128040631   -11.7794707297   -12.4461373964   -13.6128040631   -14.7794707297   -13.2794707297   -13.4461373964   -13.9461373964   -14.7794707297   -13.9461373964   -12.4461373964   -10.4461373964    -9.4461373964    -9.2794707297   -10.1128040631   -10.4461373964   -11.4461373964   -13.2794707297   -15.2794707297   -16.6128040631   -16.9461373964   -18.4461373964   -18.7794707297   -20.2794707297   -23.6128040631   -27.4461373964   -29.9461373964   -30.9461373964   -33.2794707297   -34.9461373964   -36.9461373964   -40.6128040631   -44.9461373964   -47.7794707297   -49.7794707297   -51.2794707297   -52.7794707297   -54.2794707297   -55.9461373964   -56.6128040631   -55.2794707297   -55.1128040631   -56.1128040631   -57.9461373964   -56.9461373964   -55.1128040631   -50.7794707297   -46.2794707297   -42.1128040631   -37.4461373964   -32.4461373964   -28.1128040631   -24.1128040631   -20.1128040631   -16.9461373964   -13.7794707297   -11.1128040631    -8.9461373964    -8.1128040631    -8.1128040631    -9.2794707297    -9.9461373964   -12.1128040631   -13.9461373964   -14.9461373964   -16.9461373964   -18.7794707297   -20.1128040631   -22.4461373964   -25.2794707297   -26.7794707297   -28.7794707297   -29.2794707297   -27.7794707297   -25.9461373964   -22.9461373964   -17.6128040631   -11.7794707297    -6.2794707297    -1.7794707297     3.3871959369     9.8871959369    13.8871959369    16.7205292703    19.5538626036    20.8871959369    21.3871959369    24.2205292703    24.3871959369    22.7205292703    22.0538626036    22.5538626036    20.8871959369    17.0538626036    13.0538626036    11.8871959369    11.8871959369    11.3871959369    12.0538626036    12.5538626036    13.5538626036    17.3871959369    20.3871959369    19.8871959369    19.7205292703    20.5538626036    21.7205292703    21.5538626036    22.2205292703    23.0538626036    25.2205292703    27.0538626036    27.0538626036    25.3871959369    23.2205292703    22.3871959369    22.8871959369    21.2205292703    20.0538626036    19.3871959369    18.8871959369    19.7205292703    20.0538626036    18.8871959369    16.0538626036    15.5538626036    13.3871959369     9.5538626036     6.2205292703     5.5538626036     5.3871959369     4.0538626036     3.5538626036     4.0538626036     3.5538626036     3.7205292703     5.3871959369     4.7205292703     4.5538626036     2.2205292703    -0.4461373964    -1.7794707297    -0.6128040631    -1.1128040631    -4.7794707297   -10.6128040631   -11.9461373964   -22.1128040631   -34.1128040631   -55.4461373964  -105.1128040631  -148.2794707297  -189.2794707297  -223.1128040631  -258.6128040631  -315.1128040631  -385.1128040631  -472.7794707297  -540.2794707297  -557.6128040631  -562.7794707297  -576.1128040631  -599.1128040631  -626.4461373964  -673.6128040631  -692.7794707297  -732.1128040631  -760.4461373964  -739.4461373964  -734.6128040631  -707.7794707297  -634.4461373964  -570.4461373964  -512.4461373964  -510.4461373964  -544.7794707297  -593.4461373964  -614.4461373964  -617.4461373964  -622.9461373964  -615.4461373964  -626.1128040631  -602.2794707297  -585.6128040631  -592.9461373964  -597.6128040631  -663.4461373964  -706.4461373964  -816.4461373964  -990.2794707297 -1033.6128040631 -1017.9461373964  -987.1128040631  -997.2794707297 -1013.9461373964  -988.1128040631  -942.7794707297  -895.1128040631  -807.4461373964  -777.6128040631  -760.4461373964  -728.7794707297  -672.4461373964  -643.7794707297  -511.9461373964  -324.1128040631  -267.7794707297  -264.1128040631  -231.7794707297  -160.9461373964  -148.1128040631  -144.4461373964  -154.7794707297  -180.2794707297  -214.2794707297  -190.9461373964  -175.7794707297  -177.1128040631  -137.2794707297  -111.1128040631   -96.4461373964   -43.2794707297    48.3871959369   122.2205292703   149.8871959369   151.8871959369   226.5538626036   288.3871959369   352.3871959369   427.2205292703   486.0538626036   529.0538626036   559.8871959369   593.0538626036   591.7205292703   579.0538626036   571.2205292703   557.2205292703   539.5538626036   521.5538626036   511.8871959369   513.8871959369   496.0538626036   470.2205292703   439.0538626036   411.7205292703   384.0538626036   362.8871959369   346.2205292703   335.2205292703   335.5538626036   340.3871959369   335.2205292703   321.7205292703   306.7205292703   300.5538626036   300.2205292703   299.3871959369   299.0538626036   303.0538626036   313.8871959369   322.0538626036   329.7205292703   339.2205292703   347.2205292703   359.7205292703   369.5538626036   382.5538626036   401.0538626036   424.3871959369   451.8871959369   474.7205292703   491.3871959369   505.0538626036   516.3871959369   528.0538626036   538.3871959369   548.8871959369   560.5538626036   571.7205292703   586.5538626036   601.2205292703   618.7205292703   638.5538626036   657.5538626036   674.3871959369   691.2205292703   704.0538626036   716.7205292703   729.5538626036   743.3871959369   756.2205292703   767.3871959369   777.7205292703   786.3871959369   792.5538626036   795.8871959369   796.2205292703   792.0538626036   782.0538626036   770.2205292703   759.7205292703   745.7205292703   729.8871959369   711.8871959369   692.8871959369   672.8871959369   650.5538626036   625.2205292703   598.2205292703   571.8871959369   547.7205292703   525.2205292703   502.3871959369   480.3871959369   460.3871959369   440.3871959369   421.0538626036   400.8871959369   379.3871959369   358.5538626036   339.2205292703   319.3871959369   298.0538626036   278.5538626036   263.7205292703   248.5538626036   232.0538626036   212.7205292703   193.2205292703   175.5538626036   158.3871959369   141.8871959369   122.5538626036   102.8871959369    85.2205292703    70.2205292703    54.0538626036    38.7205292703    26.2205292703    14.7205292703     2.2205292703    -9.1128040631   -19.4461373964   -27.9461373964   -37.2794707297   -47.7794707297   -57.1128040631   -66.1128040631   -72.7794707297   -77.1128040631   -80.2794707297   -86.4461373964   -92.7794707297   -99.4461373964  -104.2794707297  -107.1128040631  -111.7794707297  -116.7794707297  -123.1128040631  -128.7794707297  -132.4461373964  -135.9461373964  -139.2794707297  -141.1128040631  -139.7794707297  -138.9461373964  -139.2794707297  -137.4461373964  -131.7794707297  -124.7794707297  -117.7794707297  -111.1128040631  -104.6128040631   -99.4461373964   -92.1128040631   -84.6128040631   -78.1128040631   -72.7794707297   -68.9461373964   -65.9461373964   -64.6128040631   -62.9461373964   -61.2794707297   -63.1128040631   -67.4461373964   -70.6128040631   -73.9461373964   -77.4461373964   -80.2794707297   -82.6128040631   -86.2794707297   -90.4461373964   -94.2794707297   -96.7794707297   -99.2794707297  -100.2794707297  -101.7794707297  -104.2794707297  -106.1128040631  -105.1128040631  -104.4461373964  -104.7794707297  -104.6128040631  -104.6128040631  -103.1128040631  -100.2794707297   -97.4461373964   -95.1128040631   -92.2794707297   -88.4461373964   -82.4461373964   -78.4461373964   -75.6128040631   -72.4461373964   -67.6128040631   -63.6128040631   -59.9461373964   -58.2794707297   -57.7794707297   -54.9461373964   -52.7794707297   -51.7794707297   -52.1128040631   -52.6128040631   -53.9461373964   -57.1128040631   -61.9461373964   -66.2794707297   -70.4461373964   -73.6128040631   -76.6128040631   -77.9461373964   -78.9461373964   -80.2794707297   -81.4461373964   -84.1128040631   -87.2794707297   -91.1128040631   -93.1128040631   -93.2794707297   -92.1128040631   -90.6128040631   -89.9461373964   -90.1128040631   -88.4461373964   -85.2794707297   -83.7794707297   -84.2794707297   -85.4461373964   -84.7794707297   -83.7794707297   -81.7794707297   -78.9461373964   -75.2794707297   -72.1128040631   -70.4461373964   -69.6128040631   -68.9461373964   -67.4461373964   -65.4461373964   -63.4461373964   -63.1128040631   -59.4807538091   -54.8487035552   -48.5499866346   -42.4179363806   -36.6192194600   -32.9871692061   -30.3551189521   -27.3897353649 
    0.0073509757     0.1377973804     0.7682437851     0.5653568565    -0.3041967388    -0.1737503341     0.4566960706     1.7538091419     1.2538091419    -1.5795241914    -2.9128575247    -2.7461908581    -1.4128575247     0.0871424753     1.7538091419     4.2538091419     6.5871424753     9.7538091419    10.0871424753     8.7538091419     7.4204758086     5.0871424753     2.9204758086     0.2538091419    -2.2461908581    -2.5795241914    -2.7461908581    -3.9128575247    -5.9128575247    -9.2461908581   -11.0795241914   -11.7461908581   -13.7461908581   -18.0795241914   -20.4128575247   -21.2461908581   -21.2461908581   -20.7461908581   -20.5795241914   -20.5795241914   -20.7461908581   -20.5795241914   -20.7461908581   -21.7461908581   -23.2461908581   -24.7461908581   -25.5795241914   -26.7461908581   -26.9128575247   -25.4128575247   -22.7461908581   -18.0795241914   -14.2461908581   -12.2461908581   -11.2461908581   -10.4128575247    -7.5795241914    -3.5795241914     0.0871424753     2.4204758086     6.2538091419     9.9204758086    12.5871424753    14.2538091419    15.4204758086    16.0871424753    16.4204758086    17.4204758086    17.9204758086    17.9204758086    18.4204758086    19.2538091419    17.7538091419    14.4204758086    11.7538091419    12.2538091419    12.2538091419    13.5871424753    16.2538091419    17.5871424753    17.9204758086    17.4204758086    16.4204758086    13.9204758086    11.2538091419     8.4204758086     6.0871424753     3.9204758086     2.4204758086     3.4204758086     4.5871424753     5.0871424753     4.2538091419     2.2538091419    -2.7461908581    -6.4128575247    -8.4128575247   -10.4128575247   -12.7461908581   -15.7461908581   -16.9128575247   -16.5795241914   -16.7461908581   -17.2461908581   -17.5795241914   -20.4128575247   -22.4128575247   -24.5795241914   -26.9128575247   -28.5795241914   -28.2461908581   -26.5795241914   -24.0795241914   -20.2461908581   -16.7461908581   -13.2461908581   -11.0795241914   -10.4128575247    -9.5795241914    -7.5795241914    -4.9128575247    -1.2461908581     1.0871424753     2.2538091419     4.4204758086     6.9204758086     9.4204758086    10.0871424753    10.0871424753     9.0871424753     8.4204758086     8.9204758086    10.7538091419    15.7538091419    18.5871424753    19.0871424753    18.5871424753    18.0871424753    15.7538091419    13.5871424753    11.4204758086    10.0871424753     7.9204758086     5.5871424753    -1.2461908581    -6.4128575247   -12.2461908581   -14.4128575247   -25.4128575247   -45.7461908581   -56.5795241914   -66.5795241914   -82.2461908581   -84.5795241914   -84.5795241914   -95.9128575247   -99.4128575247   -91.0795241914   -79.5795241914   -68.2461908581   -49.5795241914   -32.2461908581   -20.0795241914   -31.2461908581   -42.7461908581   -29.2461908581   -18.9128575247   -15.4128575247    -0.2461908581     3.7538091419    13.9204758086    40.5871424753    31.2538091419   -30.2461908581   -81.4128575247  -154.2461908581  -235.7461908581  -313.0795241914  -398.5795241914  -411.2461908581  -394.7461908581  -412.5795241914  -434.0795241914  -459.5795241914  -485.7461908581  -530.9128575247  -590.4128575247  -659.2461908581  -676.5795241914  -677.4128575247  -799.7461908581  -833.7461908581  -802.4128575247  -798.2461908581  -778.7461908581  -829.2461908581  -893.0795241914  -904.9128575247  -952.0795241914  -953.9128575247  -899.5795241914  -836.4128575247  -821.9128575247  -799.9128575247  -794.2461908581  -791.7461908581  -681.5795241914  -630.7461908581  -642.4128575247  -607.7461908581  -648.2461908581  -702.4128575247  -715.0795241914  -744.9128575247  -734.0795241914  -716.4128575247  -747.7461908581  -774.2461908581  -736.5795241914  -728.0795241914  -738.4128575247  -684.0795241914  -599.4128575247  -508.0795241914  -419.7461908581  -376.5795241914  -281.4128575247  -166.9128575247  -105.9128575247   -37.9128575247    12.5871424753    43.0871424753    68.0871424753    67.7538091419    45.9204758086    27.2538091419    32.7538091419    27.9204758086     4.4204758086   -28.0795241914   -46.4128575247   -28.7461908581     4.9204758086    15.5871424753    54.9204758086    70.9204758086    97.5871424753   116.5871424753   123.7538091419   153.5871424753   196.4204758086   278.9204758086   353.0871424753   396.5871424753   423.0871424753   433.0871424753   433.7538091419   416.5871424753   409.7538091419   430.4204758086   427.5871424753   431.5871424753   425.0871424753   395.7538091419   390.4204758086   398.9204758086   408.4204758086   398.5871424753   382.7538091419   364.9204758086   350.7538091419   350.0871424753   350.9204758086   357.4204758086   359.0871424753   363.2538091419   364.4204758086   363.0871424753   375.2538091419   394.2538091419   394.5871424753   393.0871424753   396.9204758086   405.2538091419   415.2538091419   428.2538091419   444.4204758086   456.7538091419   464.2538091419   469.4204758086   474.0871424753   482.2538091419   501.2538091419   518.0871424753   530.2538091419   542.7538091419   554.9204758086   560.9204758086   561.5871424753   563.0871424753   563.7538091419   566.5871424753   572.0871424753   583.9204758086   601.0871424753   620.7538091419   644.0871424753   670.0871424753   688.4204758086   705.0871424753   724.9204758086   747.9204758086   771.4204758086   794.0871424753   815.0871424753   834.0871424753   853.7538091419   869.0871424753   880.2538091419   888.5871424753   893.5871424753   893.2538091419   887.9204758086   878.7538091419   868.0871424753   852.0871424753   832.9204758086   809.2538091419   783.0871424753   758.4204758086   734.5871424753   710.9204758086   684.9204758086   658.2538091419   631.4204758086   601.5871424753   571.4204758086   542.2538091419   512.9204758086   485.5871424753   458.7538091419   433.7538091419   408.5871424753   385.7538091419   364.9204758086   341.5871424753   317.4204758086   290.4204758086   262.5871424753   236.2538091419   209.5871424753   186.4204758086   163.9204758086   142.7538091419   122.0871424753    99.0871424753    75.2538091419    52.2538091419    29.5871424753     7.4204758086   -14.7461908581   -35.0795241914   -53.2461908581   -69.9128575247   -84.0795241914   -96.7461908581  -108.0795241914  -121.7461908581  -133.2461908581  -144.0795241914  -152.0795241914  -157.7461908581  -162.4128575247  -168.9128575247  -172.7461908581  -175.7461908581  -176.9128575247  -179.0795241914  -183.4128575247  -187.2461908581  -190.0795241914  -191.0795241914  -193.2461908581  -195.2461908581  -200.4128575247  -206.2461908581  -211.7461908581  -216.9128575247  -222.0795241914  -224.5795241914  -225.9128575247  -226.2461908581  -226.7461908581  -226.5795241914  -225.5795241914  -224.5795241914  -223.4128575247  -222.0795241914  -218.5795241914  -215.0795241914  -209.9128575247  -202.0795241914  -195.0795241914  -190.0795241914  -185.7461908581  -181.5795241914  -177.5795241914  -174.9128575247  -174.0795241914  -173.0795241914  -171.0795241914  -169.9128575247  -168.9128575247  -170.2461908581  -172.9128575247  -173.7461908581  -172.0795241914  -172.0795241914  -172.9128575247  -173.4128575247  -172.0795241914  -168.2461908581  -165.4128575247  -162.4128575247  -158.7461908581  -153.0795241914  -148.4128575247  -142.9128575247  -138.9128575247  -134.5795241914  -129.5795241914  -123.5795241914  -118.7461908581  -114.2461908581  -110.0795241914  -106.7461908581  -104.2461908581  -104.7461908581  -105.5795241914  -106.7461908581  -107.4128575247  -109.4128575247  -110.5795241914  -111.7461908581  -111.4128575247  -108.7461908581  -105.9128575247  -106.0795241914  -108.2461908581  -109.4128575247  -109.5795241914  -106.2461908581  -103.2461908581   -99.9128575247   -96.4128575247   -92.2461908581   -88.5795241914   -85.7461908581   -83.2461908581   -82.5795241914   -82.2461908581   -82.7461908581   -81.9128575247   -78.7461908581   -76.0795241914   -74.2461908581   -71.4128575247   -70.9128575247   -70.4128575247   -70.5795241914   -70.4128575247   -69.9128575247   -68.4128575247   -64.5433039294   -60.6737503341   -54.4708634055   -48.1013098102   -42.2317562149   -38.3622026196   -35.6593156910   -31.2897620957 
   17.1106655974    18.4562951083    18.1352579524    16.1475541299    13.3265169741    10.0054798182     6.8511093291     4.3634055066    -0.9699278268    -4.6365944934    -6.6365944934    -8.1365944934   -11.3032611601   -14.4699278268   -17.4699278268   -18.9699278268   -19.9699278268   -20.1365944934   -19.6365944934   -18.4699278268   -16.1365944934   -13.1365944934   -11.4699278268   -11.6365944934   -11.3032611601   -10.3032611601    -6.9699278268    -4.8032611601    -2.6365944934    -0.6365944934     2.3634055066     3.8634055066     4.6967388399     5.0300721732     6.3634055066     9.3634055066    12.8634055066    15.1967388399    18.3634055066    22.1967388399    26.8634055066    31.8634055066    34.5300721732    34.8634055066    34.8634055066    34.6967388399    33.3634055066    31.6967388399    30.1967388399    30.0300721732    30.5300721732    29.8634055066    28.5300721732    27.3634055066    27.1967388399    27.5300721732    28.0300721732    26.3634055066    23.3634055066    23.0300721732    23.0300721732    24.1967388399    24.1967388399    23.3634055066    21.6967388399    19.3634055066    17.3634055066    16.0300721732    14.6967388399    15.0300721732    15.0300721732    14.3634055066    12.8634055066    11.5300721732    10.1967388399     7.5300721732     5.3634055066     2.5300721732     0.5300721732    -0.3032611601     0.5300721732     2.6967388399     3.6967388399     4.0300721732     2.5300721732     1.6967388399     1.1967388399     0.3634055066    -1.4699278268    -2.4699278268    -1.1365944934     0.3634055066     1.1967388399     1.5300721732     2.3634055066     4.5300721732     5.8634055066     5.5300721732     5.3634055066     6.0300721732    10.1967388399    12.3634055066    12.8634055066    13.0300721732    13.6967388399    13.6967388399    13.8634055066    14.5300721732    15.8634055066    18.0300721732    19.6967388399    19.6967388399    19.0300721732    17.3634055066    14.6967388399    12.1967388399     9.3634055066     6.6967388399     4.6967388399     3.1967388399     3.1967388399     3.1967388399     0.0300721732    -3.6365944934    -8.6365944934   -13.1365944934   -15.4699278268   -16.8032611601   -18.4699278268   -19.4699278268   -18.9699278268   -17.3032611601   -16.6365944934   -17.3032611601   -17.6365944934   -16.4699278268   -16.9699278268   -16.8032611601   -15.4699278268   -13.9699278268   -12.6365944934   -10.3032611601    -8.6365944934    -9.6365944934    -9.8032611601    -8.8032611601    -7.9699278268    -8.3032611601    -9.9699278268    -9.6365944934   -11.8032611601   -12.9699278268   -14.9699278268   -17.1365944934   -29.1365944934   -43.1365944934   -79.6365944934  -104.9699278268  -119.4699278268  -148.6365944934  -177.9699278268  -236.6365944934  -287.4699278268  -313.1365944934  -347.3032611601  -374.3032611601  -408.4699278268  -441.6365944934  -479.1365944934  -564.9699278268  -674.1365944934  -820.8032611601  -898.4699278268  -951.4699278268 -1033.3032611601 -1063.8032611601 -1053.8032611601 -1012.6365944934 -1008.9699278268  -967.6365944934  -980.8032611601 -1009.1365944934  -973.6365944934  -975.6365944934  -943.9699278268  -947.6365944934  -997.8032611601  -902.8032611601  -805.9699278268  -715.4699278268  -645.9699278268  -643.8032611601  -756.3032611601  -821.4699278268  -842.4699278268  -905.4699278268  -939.3032611601 -1091.6365944934 -1378.6365944934 -1471.1365944934 -1497.6365944934 -1445.1365944934 -1239.4699278268 -1136.6365944934 -1107.8032611601 -1126.4699278268 -1064.3032611601  -930.1365944934  -734.8032611601  -581.1365944934  -436.4699278268  -344.1365944934  -211.6365944934    32.1967388399   316.6967388399   470.0300721732   545.1967388399   586.8634055066   505.6967388399   399.5300721732   374.8634055066   416.0300721732   370.6967388399   272.5300721732   209.3634055066   163.6967388399   134.5300721732   135.5300721732   112.5300721732   118.0300721732   171.5300721732   187.1967388399   188.8634055066   236.8634055066   349.1967388399   494.1967388399   583.0300721732   615.5300721732   690.5300721732   769.1967388399   822.1967388399   849.0300721732   852.0300721732   852.1967388399   867.1967388399   863.1967388399   855.0300721732   833.0300721732   797.1967388399   760.8634055066   716.5300721732   671.6967388399   637.5300721732   612.6967388399   590.0300721732   575.8634055066   560.3634055066   542.0300721732   522.6967388399   506.1967388399   491.5300721732   484.1967388399   472.1967388399   479.5300721732   497.6967388399   509.5300721732   515.8634055066   510.1967388399   493.8634055066   475.8634055066   458.5300721732   443.3634055066   434.1967388399   429.1967388399   426.8634055066   425.1967388399   425.5300721732   424.0300721732   421.0300721732   421.5300721732   421.5300721732   421.0300721732   418.3634055066   417.8634055066   418.6967388399   419.8634055066   422.1967388399   424.8634055066   427.6967388399   430.3634055066   433.8634055066   437.6967388399   441.5300721732   445.3634055066   451.0300721732   457.5300721732   466.0300721732   472.8634055066   479.0300721732   486.3634055066   494.6967388399   504.3634055066   510.8634055066   514.0300721732   514.5300721732   515.1967388399   515.8634055066   515.1967388399   511.5300721732   505.6967388399   503.8634055066   502.5300721732   501.1967388399   499.5300721732   499.5300721732   496.6967388399   492.1967388399   483.1967388399   473.1967388399   464.0300721732   454.0300721732   442.0300721732   428.0300721732   413.6967388399   400.8634055066   389.5300721732   373.0300721732   354.3634055066   333.1967388399   309.8634055066   284.1967388399   257.6967388399   229.1967388399   199.6967388399   170.1967388399   142.0300721732   117.6967388399    96.0300721732    75.1967388399    57.5300721732    41.8634055066    26.0300721732    12.1967388399    -1.6365944934   -13.6365944934   -22.4699278268   -28.8032611601   -34.1365944934   -38.1365944934   -40.1365944934   -39.9699278268   -39.9699278268   -42.4699278268   -47.8032611601   -53.8032611601   -62.6365944934   -71.9699278268   -81.1365944934   -89.9699278268   -99.3032611601  -108.9699278268  -117.4699278268  -125.6365944934  -132.3032611601  -138.3032611601  -143.3032611601  -147.8032611601  -151.6365944934  -154.1365944934  -154.9699278268  -154.9699278268  -152.8032611601  -150.4699278268  -147.8032611601  -146.8032611601  -144.4699278268  -141.3032611601  -137.3032611601  -135.4699278268  -134.8032611601  -131.4699278268  -127.4699278268  -124.6365944934  -122.9699278268  -120.4699278268  -119.4699278268  -117.4699278268  -115.8032611601  -115.4699278268  -114.9699278268  -111.9699278268  -107.8032611601  -105.1365944934  -106.1365944934  -106.1365944934  -103.3032611601  -102.6365944934  -103.8032611601  -105.3032611601  -106.4699278268  -109.4699278268  -111.1365944934  -113.3032611601  -116.6365944934  -118.6365944934  -119.6365944934  -121.4699278268  -124.9699278268  -127.4699278268  -128.3032611601  -128.3032611601  -131.9699278268  -135.9699278268  -138.4699278268  -140.3032611601  -140.3032611601  -137.8032611601  -134.4699278268  -132.6365944934  -129.1365944934  -126.6365944934  -124.3032611601  -122.8032611601  -121.8032611601  -120.6365944934  -117.9699278268  -114.1365944934  -108.3032611601  -103.4699278268  -100.1365944934   -96.8032611601   -93.6365944934   -92.8032611601   -92.4699278268   -91.4699278268   -90.8032611601   -86.9699278268   -82.9699278268   -80.1365944934   -77.3032611601   -73.3032611601   -71.6365944934   -71.6365944934   -72.3032611601   -72.3032611601   -71.4699278268   -69.3032611601   -68.4699278268   -67.3032611601   -66.4699278268   -64.4699278268   -62.4699278268   -62.9699278268   -65.3032611601   -67.6365944934   -68.4699278268   -68.8032611601   -68.1365944934   -66.6365944934   -73.4699278268   -83.3032611601   -82.9699278268   -79.4699278268   -75.3032611601   -72.6365944934   -71.4699278268   -72.1365944934   -73.4699278268   -75.8032611601   -77.8032611601   -79.6365944934   -81.1365944934   -84.3032611601   -81.1488906709   -78.6611868484   -67.3401496926   -52.0191125368   -46.5314087142   -45.7103715584   -45.0560010692   -42.9016305801 
   10.1618705036    11.5687450040     9.8089528377     7.8824940048     7.7893685052     8.8629096723    10.9364508393    12.3433253397    11.0099920064     8.6766586731     6.8433253397     5.6766586731     4.6766586731     2.3433253397     0.1766586731    -2.3233413269    -3.3233413269    -4.3233413269    -3.4900079936    -1.6566746603    -2.3233413269    -3.9900079936    -6.8233413269    -9.1566746603   -11.3233413269   -11.1566746603   -13.3233413269   -16.6566746603   -18.3233413269   -20.4900079936   -20.9900079936   -22.6566746603   -27.4900079936   -32.8233413269   -36.8233413269   -40.8233413269   -42.8233413269   -45.1566746603   -47.4900079936   -49.8233413269   -50.8233413269   -52.1566746603   -52.1566746603   -49.9900079936   -47.8233413269   -42.3233413269   -38.4900079936   -34.9900079936   -30.3233413269   -24.4900079936   -17.6566746603   -12.3233413269    -9.6566746603    -7.9900079936    -4.6566746603     0.6766586731     2.1766586731     3.1766586731     5.5099920064     7.6766586731     8.0099920064     5.0099920064     2.3433253397     1.6766586731     2.1766586731     2.1766586731    -2.1566746603    -6.9900079936   -10.6566746603   -12.4900079936   -14.3233413269   -16.6566746603   -15.8233413269   -14.4900079936   -12.9900079936   -11.1566746603   -10.1566746603   -10.1566746603    -9.9900079936   -10.4900079936   -10.6566746603   -10.1566746603    -8.4900079936    -6.1566746603    -1.9900079936     2.0099920064     4.1766586731     4.3433253397     3.1766586731     2.3433253397     0.1766586731    -3.1566746603    -6.8233413269    -9.1566746603   -11.9900079936   -14.3233413269   -15.4900079936   -17.6566746603   -18.8233413269   -20.3233413269   -22.3233413269   -24.6566746603   -26.4900079936   -28.4900079936   -30.3233413269   -30.6566746603   -30.3233413269   -31.8233413269   -32.4900079936   -31.1566746603   -29.6566746603   -28.8233413269   -29.9900079936   -30.1566746603   -28.1566746603   -23.3233413269   -21.4900079936   -20.1566746603   -18.4900079936   -15.4900079936   -12.4900079936   -11.4900079936   -11.6566746603    -9.4900079936    -7.1566746603    -6.1566746603    -3.6566746603    -3.3233413269    -2.1566746603    -0.9900079936     0.1766586731    -2.9900079936    -5.1566746603    -8.1566746603   -11.8233413269   -15.4900079936   -17.6566746603   -19.4900079936   -20.9900079936   -24.1566746603   -27.1566746603   -27.9900079936   -29.8233413269   -29.8233413269   -31.8233413269   -34.6566746603   -37.1566746603   -34.4900079936   -30.1566746603   -28.4900079936   -25.1566746603   -21.4900079936   -22.3233413269   -20.8233413269   -15.9900079936    -8.1566746603    -1.6566746603     0.1766586731    -2.6566746603    -9.1566746603   -30.1566746603   -36.9900079936   -50.3233413269   -69.8233413269   -88.1566746603  -110.6566746603  -144.3233413269  -194.8233413269  -230.1566746603  -252.6566746603  -295.4900079936  -379.3233413269  -430.9900079936  -478.4900079936  -573.3233413269  -624.9900079936  -623.9900079936  -626.8233413269  -599.6566746603  -617.1566746603  -611.3233413269  -582.4900079936  -601.8233413269  -672.4900079936  -703.9900079936  -764.4900079936  -837.1566746603  -891.6566746603  -870.4900079936  -803.8233413269  -682.3233413269  -616.9900079936  -650.1566746603  -782.4900079936  -896.1566746603  -905.3233413269  -948.1566746603 -1036.4900079936 -1073.1566746603 -1083.6566746603 -1128.1566746603 -1072.6566746603 -1050.9900079936 -1012.1566746603 -1060.6566746603 -1102.8233413269 -1088.8233413269 -1047.3233413269 -1000.8233413269  -811.3233413269  -652.1566746603  -562.4900079936  -482.8233413269  -349.4900079936  -180.3233413269   -53.8233413269    41.5099920064    93.1766586731   219.0099920064   320.3433253397   330.5099920064   278.8433253397   217.8433253397    95.8433253397   -25.6566746603  -140.6566746603  -229.3233413269  -277.9900079936  -251.9900079936  -235.1566746603  -247.4900079936  -180.8233413269   -87.4900079936   -24.3233413269    17.5099920064    86.0099920064   207.0099920064   346.0099920064   412.3433253397   510.3433253397   666.5099920064   751.5099920064   750.0099920064   748.8433253397   661.8433253397   572.8433253397   536.6766586731   496.8433253397   450.6766586731   407.6766586731   382.3433253397   379.0099920064   388.5099920064   368.1766586731   361.3433253397   389.0099920064   409.0099920064   444.6766586731   526.0099920064   574.1766586731   648.3433253397   702.5099920064   694.1766586731   701.8433253397   707.1766586731   692.1766586731   673.3433253397   610.8433253397   557.3433253397   526.3433253397   507.3433253397   474.0099920064   455.8433253397   436.3433253397   420.5099920064   409.1766586731   399.5099920064   395.3433253397   396.6766586731   388.6766586731   377.5099920064   370.0099920064   358.8433253397   372.1766586731   383.0099920064   391.8433253397   398.3433253397   403.1766586731   397.0099920064   386.1766586731   374.0099920064   363.1766586731   353.0099920064   344.3433253397   341.0099920064   340.8433253397   341.0099920064   343.1766586731   345.5099920064   347.5099920064   350.5099920064   353.3433253397   354.3433253397   355.6766586731   358.5099920064   363.3433253397   366.0099920064   369.5099920064   375.1766586731   382.5099920064   388.5099920064   392.8433253397   396.3433253397   398.3433253397   402.1766586731   405.1766586731   404.1766586731   402.6766586731   403.0099920064   402.6766586731   399.3433253397   394.1766586731   390.5099920064   383.0099920064   376.6766586731   372.5099920064   367.5099920064   360.3433253397   352.5099920064   345.8433253397   338.8433253397   332.8433253397   328.6766586731   324.3433253397   318.5099920064   314.0099920064   312.8433253397   313.6766586731   315.1766586731   320.1766586731   324.3433253397   324.3433253397   323.6766586731   323.5099920064   322.6766586731   318.6766586731   310.5099920064   299.3433253397   288.3433253397   278.5099920064   265.1766586731   249.1766586731   229.3433253397   207.1766586731   183.6766586731   161.3433253397   137.5099920064   113.0099920064    88.1766586731    67.1766586731    49.8433253397    35.1766586731    23.3433253397    13.0099920064     4.3433253397    -4.6566746603    -9.3233413269   -12.6566746603   -13.3233413269   -13.4900079936   -14.3233413269   -17.9900079936   -21.6566746603   -23.6566746603   -25.4900079936   -26.1566746603   -29.4900079936   -34.1566746603   -37.9900079936   -41.4900079936   -44.6566746603   -48.6566746603   -54.4900079936   -60.3233413269   -65.4900079936   -69.6566746603   -72.4900079936   -74.9900079936   -78.3233413269   -81.4900079936   -81.6566746603   -83.3233413269   -84.6566746603   -86.4900079936   -89.3233413269   -91.9900079936   -95.9900079936   -99.3233413269  -101.6566746603  -103.3233413269  -104.9900079936  -106.9900079936  -110.1566746603  -111.6566746603  -111.4900079936  -112.9900079936  -116.6566746603  -121.3233413269  -124.3233413269  -123.9900079936  -120.6566746603  -117.1566746603  -114.4900079936  -112.6566746603  -108.9900079936  -105.8233413269  -102.3233413269   -98.3233413269   -93.1566746603   -87.8233413269   -83.4900079936   -78.3233413269   -73.6566746603   -69.9900079936   -67.9900079936   -66.8233413269   -66.8233413269   -67.4900079936   -69.4900079936   -69.3233413269   -67.8233413269   -64.9900079936   -62.8233413269   -62.1566746603   -61.8233413269   -60.6566746603   -61.9900079936   -64.8233413269   -67.8233413269   -68.8233413269   -68.3233413269   -67.9900079936   -69.3233413269   -70.3233413269   -68.8233413269   -68.4900079936   -71.3233413269   -75.1566746603   -80.3233413269   -85.8233413269   -91.9900079936   -98.6566746603  -101.6566746603  -101.8233413269  -100.1566746603   -99.8233413269  -100.3233413269  -100.8233413269  -100.8233413269   -99.9900079936   -98.6566746603   -98.4900079936   -97.6566746603   -97.4900079936   -95.8233413269   -91.8233413269   -86.3233413269   -82.1566746603   -80.3233413269   -79.3233413269   -80.8233413269   -81.3233413269   -82.3233413269   -77.5635491607   -72.8037569944   -68.5439648281   -64.7841726619   -60.1910471623   -55.4312549960   -49.6714628297   -43.7450039968 
   17.1224271585    17.8767709169    18.2977813419    19.0521251002    19.4731355253    22.0608126170    26.6484897086    31.9028334670    33.7361668003    35.0695001337    37.0695001337    38.4028334670    39.0695001337    38.0695001337    38.5695001337    39.7361668003    41.2361668003    42.5695001337    44.9028334670    46.9028334670    49.9028334670    51.7361668003    49.9028334670    47.5695001337    45.9028334670    44.9028334670    44.4028334670    43.9028334670    43.0695001337    43.0695001337    43.9028334670    43.2361668003    42.2361668003    40.9028334670    38.5695001337    37.5695001337    37.7361668003    37.0695001337    37.0695001337    36.5695001337    37.0695001337    38.5695001337    37.4028334670    35.5695001337    35.7361668003    36.5695001337    37.0695001337    39.2361668003    40.7361668003    42.5695001337    45.4028334670    46.0695001337    43.4028334670    41.5695001337    42.2361668003    43.2361668003    44.2361668003    42.9028334670    41.4028334670    38.9028334670    35.7361668003    34.0695001337    32.0695001337    27.4028334670    23.5695001337    19.4028334670    14.7361668003    11.0695001337     9.0695001337     6.7361668003     4.4028334670     4.4028334670     2.9028334670     1.4028334670     0.4028334670     2.0695001337     3.9028334670     3.7361668003     3.0695001337     4.0695001337     6.0695001337     9.9028334670    13.0695001337    17.5695001337    21.2361668003    23.4028334670    24.0695001337    22.9028334670    23.0695001337    23.4028334670    24.7361668003    26.0695001337    26.0695001337    27.4028334670    28.5695001337    31.0695001337    33.0695001337    33.7361668003    34.2361668003    33.4028334670    33.0695001337    33.9028334670    33.0695001337    30.4028334670    28.5695001337    29.5695001337    30.7361668003    30.7361668003    29.9028334670    26.9028334670    23.9028334670    19.9028334670    16.2361668003    11.7361668003     5.4028334670     0.4028334670    -3.0971665330    -6.4304998663    -8.2638331997    -7.9304998663    -8.2638331997   -10.0971665330   -11.9304998663   -14.4304998663   -15.4304998663   -14.0971665330   -10.9304998663    -8.2638331997    -7.0971665330    -7.7638331997    -5.0971665330    -2.2638331997    -1.5971665330    -1.9304998663    -2.5971665330    -3.7638331997    -5.2638331997    -6.9304998663    -9.7638331997   -11.9304998663   -12.5971665330   -13.4304998663   -15.5971665330   -16.4304998663   -16.0971665330   -11.9304998663    -8.7638331997    -9.9304998663   -14.5971665330   -17.0971665330    -4.9304998663     4.4028334670    -4.5971665330   -18.4304998663   -36.0971665330   -66.4304998663   -88.4304998663  -100.4304998663  -110.7638331997  -123.2638331997  -169.4304998663  -212.4304998663  -232.7638331997  -253.0971665330  -264.2638331997  -262.9304998663  -276.2638331997  -330.4304998663  -382.2638331997  -409.9304998663  -419.2638331997  -405.2638331997  -437.7638331997  -492.0971665330  -542.7638331997  -620.4304998663  -690.4304998663  -698.7638331997  -669.9304998663  -648.2638331997  -666.7638331997  -671.7638331997  -713.2638331997  -710.7638331997  -666.4304998663  -731.2638331997  -816.0971665330  -893.9304998663  -871.0971665330  -813.5971665330  -788.7638331997  -790.0971665330  -715.4304998663  -723.5971665330  -884.5971665330  -978.4304998663 -1020.4304998663 -1138.7638331997 -1156.5971665330 -1149.7638331997 -1162.0971665330 -1059.2638331997  -899.4304998663  -838.5971665330  -872.0971665330  -861.5971665330  -785.4304998663  -659.2638331997  -578.2638331997  -499.2638331997  -436.2638331997  -350.7638331997  -235.2638331997   -66.4304998663    24.5695001337   104.5695001337   134.2361668003    86.4028334670    13.2361668003    40.0695001337   120.0695001337   101.5695001337    64.7361668003     5.0695001337  -116.0971665330  -193.0971665330  -116.2638331997   -95.7638331997  -115.2638331997  -110.2638331997   -79.7638331997   -39.5971665330    41.7361668003   173.0695001337   279.5695001337   364.7361668003   430.5695001337   531.2361668003   596.7361668003   680.5695001337   812.9028334670   911.5695001337   932.0695001337   944.0695001337   955.2361668003   938.0695001337   911.9028334670   863.5695001337   825.9028334670   776.0695001337   731.0695001337   697.9028334670   644.5695001337   598.5695001337   568.9028334670   549.2361668003   534.9028334670   524.2361668003   542.7361668003   540.7361668003   532.7361668003   529.5695001337   524.2361668003   515.4028334670   498.4028334670   493.5695001337   482.5695001337   465.4028334670   465.7361668003   454.4028334670   440.5695001337   428.2361668003   421.7361668003   416.0695001337   408.9028334670   407.4028334670   409.4028334670   405.0695001337   400.9028334670   399.4028334670   398.2361668003   400.2361668003   404.7361668003   404.9028334670   403.2361668003   402.0695001337   403.9028334670   402.9028334670   397.7361668003   396.4028334670   401.0695001337   406.4028334670   407.5695001337   408.5695001337   409.2361668003   408.7361668003   410.2361668003   411.9028334670   412.9028334670   413.5695001337   416.4028334670   420.9028334670   424.2361668003   426.9028334670   429.7361668003   432.7361668003   436.2361668003   440.0695001337   443.4028334670   445.9028334670   448.0695001337   450.5695001337   449.2361668003   443.4028334670   435.4028334670   429.5695001337   422.9028334670   413.7361668003   401.9028334670   389.7361668003   378.4028334670   366.4028334670   351.0695001337   333.4028334670   317.5695001337   303.5695001337   290.4028334670   275.0695001337   259.0695001337   244.5695001337   231.5695001337   217.9028334670   202.2361668003   185.9028334670   170.9028334670   158.7361668003   146.9028334670   134.9028334670   123.5695001337   113.9028334670   104.4028334670    95.5695001337    86.5695001337    77.0695001337    68.5695001337    59.9028334670    51.0695001337    40.4028334670    30.5695001337    21.4028334670    12.0695001337     1.2361668003   -10.4304998663   -22.9304998663   -35.4304998663   -48.2638331997   -60.9304998663   -75.5971665330   -92.2638331997  -109.4304998663  -125.0971665330  -139.0971665330  -154.0971665330  -167.2638331997  -179.2638331997  -189.0971665330  -196.2638331997  -203.2638331997  -211.0971665330  -218.2638331997  -223.0971665330  -227.0971665330  -231.7638331997  -235.9304998663  -238.2638331997  -237.0971665330  -235.9304998663  -236.5971665330  -236.2638331997  -235.4304998663  -232.9304998663  -230.7638331997  -230.7638331997  -231.2638331997  -232.4304998663  -231.0971665330  -228.4304998663  -224.9304998663  -222.5971665330  -219.5971665330  -213.9304998663  -209.2638331997  -206.9304998663  -204.0971665330  -200.9304998663  -196.4304998663  -194.0971665330  -192.7638331997  -191.0971665330  -189.2638331997  -185.4304998663  -182.9304998663  -183.5971665330  -185.2638331997  -186.2638331997  -187.9304998663  -192.4304998663  -196.7638331997  -200.4304998663  -202.7638331997  -203.4304998663  -204.0971665330  -203.5971665330  -204.2638331997  -203.9304998663  -203.5971665330  -203.9304998663  -205.2638331997  -206.2638331997  -206.9304998663  -206.7638331997  -204.7638331997  -201.9304998663  -198.5971665330  -194.2638331997  -188.0971665330  -183.5971665330  -180.4304998663  -177.2638331997  -172.2638331997  -167.7638331997  -162.5971665330  -158.2638331997  -154.9304998663  -151.0971665330  -148.2638331997  -145.0971665330  -140.9304998663  -136.2638331997  -131.5971665330  -126.0971665330  -121.5971665330  -118.4304998663  -115.9304998663  -115.0971665330  -114.5971665330  -114.0971665330  -113.4304998663  -112.2638331997  -109.4304998663  -105.7638331997  -100.9304998663   -96.4304998663   -94.5971665330   -93.4304998663   -91.4304998663   -90.2638331997   -91.0971665330   -90.7638331997   -90.2638331997   -88.9304998663   -87.9304998663   -87.9304998663   -90.7638331997   -93.0971665330   -94.7638331997   -95.4304998663   -97.4304998663  -100.2638331997  -102.7638331997  -105.0971665330  -106.0971665330  -107.7638331997  -102.6848436247   -97.1058540497   -91.0268644747   -84.7812082331   -78.7022186581   -72.4565624165   -64.0442395082   -55.1319165998 
   22.9083132852    24.1388666132    24.3694199412    24.0999732692    24.1638599305    27.0610799252    30.6249665865    34.0221865811    34.8555199145    33.3555199145    31.0221865811    30.8555199145    30.1888532478    27.8555199145    26.5221865811    27.0221865811    27.6888532478    27.6888532478    28.1888532478    29.3555199145    29.3555199145    27.3555199145    24.6888532478    20.5221865811    16.3555199145    13.6888532478    10.8555199145     6.3555199145     2.3555199145    -0.6444800855    -2.3111467522    -2.9778134189    -4.3111467522    -7.6444800855   -12.3111467522   -17.1444800855   -19.8111467522   -22.6444800855   -25.4778134189   -26.6444800855   -26.6444800855   -26.1444800855   -24.9778134189   -22.9778134189   -21.3111467522   -19.9778134189   -18.6444800855   -17.6444800855   -17.4778134189   -16.3111467522   -15.1444800855   -13.8111467522   -12.3111467522   -11.4778134189   -11.1444800855   -10.1444800855    -8.6444800855    -8.9778134189    -9.9778134189   -11.1444800855   -12.8111467522   -14.8111467522   -17.1444800855   -19.6444800855   -21.3111467522   -21.9778134189   -19.9778134189   -17.6444800855   -16.4778134189   -15.3111467522   -13.1444800855   -11.1444800855   -10.4778134189    -9.6444800855    -9.6444800855   -10.1444800855    -7.4778134189    -4.3111467522    -3.4778134189    -4.8111467522    -6.4778134189    -6.8111467522    -6.1444800855    -6.1444800855    -6.3111467522    -5.3111467522    -4.3111467522    -4.1444800855    -4.3111467522    -3.8111467522    -2.4778134189    -1.3111467522    -1.8111467522    -3.3111467522    -3.3111467522    -1.6444800855    -0.8111467522    -1.6444800855    -5.1444800855    -6.9778134189    -6.8111467522    -5.9778134189    -5.1444800855    -4.8111467522    -4.9778134189    -6.4778134189    -8.4778134189   -10.8111467522   -13.4778134189   -16.1444800855   -18.6444800855   -20.9778134189   -21.9778134189   -22.6444800855   -21.9778134189   -22.1444800855   -24.1444800855   -26.8111467522   -30.1444800855   -32.9778134189   -34.1444800855   -32.1444800855   -29.1444800855   -26.8111467522   -24.3111467522   -21.6444800855   -18.6444800855   -15.9778134189   -14.3111467522   -14.1444800855   -14.9778134189   -14.1444800855   -12.3111467522   -13.1444800855   -14.6444800855   -14.6444800855   -13.4778134189   -12.8111467522   -13.8111467522   -15.4778134189   -18.6444800855   -21.4778134189   -28.1444800855   -31.6444800855   -32.9778134189   -37.4778134189   -42.4778134189   -50.3111467522   -59.1444800855   -61.6444800855   -65.4778134189   -75.8111467522   -99.1444800855  -119.6444800855  -148.4778134189  -198.3111467522  -201.3111467522  -181.3111467522  -169.6444800855  -147.6444800855  -141.3111467522  -140.8111467522  -147.3111467522  -176.9778134189  -195.1444800855  -227.1444800855  -262.6444800855  -310.4778134189  -409.6444800855  -496.3111467522  -542.1444800855  -534.8111467522  -536.8111467522  -574.6444800855  -654.4778134189  -726.4778134189  -766.3111467522  -810.3111467522  -847.4778134189  -870.4778134189  -872.8111467522  -841.3111467522  -800.1444800855  -764.1444800855  -665.4778134189  -642.8111467522  -693.6444800855  -733.1444800855  -767.1444800855  -768.6444800855  -764.4778134189  -785.1444800855  -769.9778134189  -760.8111467522  -747.3111467522  -781.4778134189  -908.6444800855 -1015.8111467522 -1021.6444800855  -951.4778134189  -870.1444800855  -750.9778134189  -606.3111467522  -560.6444800855  -505.6444800855  -480.9778134189  -397.9778134189  -291.8111467522  -243.6444800855  -212.1444800855  -227.3111467522  -162.1444800855    -1.6444800855   128.6888532478   156.5221865811   103.6888532478    36.1888532478   -21.4778134189   -59.1444800855   -91.3111467522   -81.4778134189   -21.8111467522    34.8555199145    61.8555199145    80.1888532478   148.3555199145   252.8555199145   315.1888532478   319.8555199145   298.1888532478   287.1888532478   293.3555199145   330.6888532478   390.0221865811   401.3555199145   475.3555199145   463.3555199145   379.1888532478   309.3555199145   277.0221865811   268.0221865811   253.6888532478   246.1888532478   270.0221865811   315.5221865811   364.3555199145   394.0221865811   434.0221865811   440.3555199145   429.1888532478   458.0221865811   477.1888532478   491.6888532478   541.6888532478   572.3555199145   577.0221865811   570.3555199145   556.6888532478   540.8555199145   508.6888532478   472.8555199145   446.6888532478   430.6888532478   414.8555199145   402.8555199145   397.6888532478   383.0221865811   378.1888532478   378.3555199145   378.8555199145   378.5221865811   378.8555199145   379.3555199145   375.5221865811   372.0221865811   371.8555199145   377.5221865811   378.8555199145   377.8555199145   376.1888532478   378.3555199145   386.6888532478   412.3555199145   426.0221865811   428.0221865811   425.5221865811   421.6888532478   416.1888532478   413.6888532478   417.0221865811   424.0221865811   433.3555199145   441.5221865811   450.1888532478   457.1888532478   467.1888532478   477.3555199145   483.1888532478   486.6888532478   492.1888532478   502.8555199145   515.1888532478   527.6888532478   538.8555199145   545.8555199145   550.5221865811   553.6888532478   556.5221865811   561.8555199145   570.5221865811   578.0221865811   582.8555199145   583.8555199145   582.6888532478   579.3555199145   574.8555199145   569.5221865811   564.0221865811   558.1888532478   552.0221865811   546.3555199145   541.5221865811   535.3555199145   525.1888532478   510.8555199145   494.6888532478   477.1888532478   457.0221865811   436.3555199145   414.3555199145   391.8555199145   368.6888532478   345.1888532478   321.0221865811   294.6888532478   267.5221865811   240.8555199145   211.8555199145   181.1888532478   152.5221865811   124.3555199145    98.1888532478    74.6888532478    53.0221865811    33.3555199145    16.0221865811     1.1888532478   -13.4778134189   -29.6444800855   -45.6444800855   -59.3111467522   -69.1444800855   -78.6444800855   -86.3111467522   -91.9778134189   -97.6444800855  -102.4778134189  -108.1444800855  -116.1444800855  -123.6444800855  -131.9778134189  -139.9778134189  -147.6444800855  -154.9778134189  -159.3111467522  -161.6444800855  -164.1444800855  -169.3111467522  -174.9778134189  -181.1444800855  -186.9778134189  -191.1444800855  -194.1444800855  -201.3111467522  -205.8111467522  -208.9778134189  -208.9778134189  -208.1444800855  -208.4778134189  -208.6444800855  -210.1444800855  -211.9778134189  -213.3111467522  -214.6444800855  -215.9778134189  -215.6444800855  -212.8111467522  -209.1444800855  -205.1444800855  -198.6444800855  -193.4778134189  -189.1444800855  -187.1444800855  -187.4778134189  -186.9778134189  -186.3111467522  -184.8111467522  -182.4778134189  -181.3111467522  -180.4778134189  -176.8111467522  -171.8111467522  -167.6444800855  -165.9778134189  -166.3111467522  -163.8111467522  -161.3111467522  -158.4778134189  -155.8111467522  -152.6444800855  -148.9778134189  -143.6444800855  -139.3111467522  -137.1444800855  -134.9778134189  -130.9778134189  -127.6444800855  -126.8111467522  -127.3111467522  -128.1444800855  -127.8111467522  -125.9778134189  -121.6444800855  -119.1444800855  -117.6444800855  -115.1444800855  -111.9778134189  -109.9778134189  -108.8111467522  -107.9778134189  -105.8111467522  -102.8111467522  -100.9778134189   -98.9778134189   -97.8111467522   -94.8111467522   -90.6444800855   -88.3111467522   -88.9778134189   -90.3111467522   -89.6444800855   -88.1444800855   -87.3111467522   -86.4778134189   -86.1444800855   -84.1444800855   -82.1444800855   -80.9778134189   -79.6444800855   -78.1444800855   -74.9778134189   -71.6444800855   -69.1444800855   -67.1444800855   -65.3111467522   -61.1444800855   -56.3111467522   -52.3111467522   -50.4778134189   -50.6444800855   -49.4778134189   -48.3111467522   -46.9778134189   -46.3111467522   -45.6444800855   -46.1444800855   -47.4778134189   -48.8111467522   -49.3111467522   -49.6444800855   -48.4778134189   -47.6444800855   -48.1444800855   -46.7083667468   -44.2722534082   -40.1694734028   -35.9000267308   -32.6305800588   -30.0278000535   -27.0916867148   -24.1555733761 
