-5.594323386455444415e+04
-9.383418049443341442e+04
-6.146694866210184409e+04
-6.182680162361803377e+04
-5.111836812231905060e+04
9.437603596372715401e+03
3.519039532893231808e+04
1.225986416802811800e+04
7.108763956875196527e+03
1.850840782905510059e+04
2.341954716482679578e+04
2.746650152213637921e+04
2.009130903096251132e+04
4.269957365727014803e+03
1.472154315680898435e+03
-1.056242684287579323e+03
-1.158080694708774172e+04
-9.791301995457908561e+03
-3.581877410431552562e+03
-1.073047013899911872e+04
-1.712117767914319120e+04
-1.414937751602977914e+04
-8.363918596228788374e+03
6.285587202019452207e+02
5.326698869350142559e+03
8.151423416189031741e+02
1.509196496763560162e+03
8.131603030469671467e+03
8.171770867392971923e+03
7.124986634767155010e+03
9.352861256907943243e+03
6.708987486741640168e+03
1.652602607377420554e+03
-7.864798190290382536e+02
-2.840095917356566133e+03
-1.845972119328785084e+03
1.190698848860566557e+02
-4.647080348023571787e+03
-9.208364305276696541e+03
-6.088243589309786330e+03
-2.929239448280844044e+03
-2.473516042290868882e+03
-6.767262804813616413e+02
1.851903274032415538e+02
1.999160866986022711e+02
1.891596614245544288e+03
2.511174420906309024e+03
3.046826595564394665e+03
5.620346443175974855e+03
4.874570297694200235e+03
7.519013966212252171e+02
-1.307110991296177644e+02
1.073385846432256812e+03
7.647330108959625932e+02
-1.102179594741553075e+02
-1.926258830677604692e+03
-3.687287421222064040e+03
-2.786029212485898825e+03
-1.909854063242638858e+03
-2.430519295746000807e+03
-1.116285703058129457e+03
3.902402761133420199e+02
-6.036187243429678801e+02
-9.460292942649248289e+02
6.277403071285949636e+02
1.914459362654528377e+03
2.569616141099707420e+03
2.036326235926380150e+03
4.913466788352521917e+02
5.188896885003809984e+02
1.365560588433851990e+03
6.259648142852003048e+02
-1.140816365072603418e+02
-2.475835329684158737e+01
-7.171397958502433312e+02
-1.415721351652938438e+03
-1.190829601950745428e+03
-9.461472498578290242e+02
-5.605659404164474608e+02
-2.974008386067143874e+02
-9.585013072073526246e+02
-1.019568767497630915e+03
2.251170586556142439e+02
9.124141906506959003e+02
7.711366967731983095e+02
6.734819406000895015e+02
3.961004855195205323e+02
2.876939541555140067e+02
5.601651950460973239e+02
4.165622815983306282e+02
2.583339572972372480e+02
4.568638714681558213e+02
-2.670963466516333540e+01
-7.750356436417706618e+02
-5.595269661182385335e+02
-1.248657393724788562e+02
-2.096044270506661746e+02
-3.375196027920747497e+02
-4.446186582006612866e+02
-4.129376186974348002e+02
1.072733397089196572e+01
2.277192154074238886e+02
9.286326815487896624e+01
1.612358730719320477e+02
1.873561277819242719e+02
-1.618388590876763544e+01
4.334250867369142668e+01
2.664505944901088696e+02
3.181517745159897572e+02
2.648619444801745431e+02
-6.814587261236869864e+00
-3.168304390601188061e+02
-1.984180809389936826e+02
-2.443387137016976851e+00
-9.967612330746668192e+01
-1.043452396584877704e+02
-1.022020113602984281e+01
-7.837833309472256360e+01
-6.438647279149806479e+01
3.160834831311549209e+01
-1.682167335353321747e+01
5.123695405654764556e-01
6.430877570887003003e+01
-7.021711480272648487e+01
-1.015526986623316361e+02
1.090022737675893438e+02
1.480215449903727176e+02
8.874122529250598745e+00
-2.869095404574585473e+01
-5.985024744912350769e+01
-1.088842204042552453e+02
-6.569504751696608480e+01
-1.738631317431593715e+00
1.863299401872993144e+01
3.874240339809612976e+01
1.443067399049670740e+01
-3.656051867200341832e+01
-2.922743057569403291e+01
-2.257597645979931400e+01
-2.438078958511292527e+01
1.818953339042280959e+01
7.637474283786339413e+00
-3.532312550521137950e+01
1.129493352099209602e+01
3.428232464415981440e+01
2.761887819048524761e+00
2.656346071598414227e+01
-3.200711957230610238e+01
-1.383980059005844510e+02
-3.685847235735278105e+01
1.423805167597656052e+01
-1.787034337338370165e+02
-1.727508045840841362e+02
-9.130071024371225974e+00
-1.447318234282033131e+02
-2.384967222429420985e+02
3.481332343328560341e+01
1.940962954709279131e+02
1.205048592777389445e+02
1.759386261127029059e+02
2.747943022705450744e+02
2.523004181950221039e+02
1.982661033181700532e+02
7.950231746570057112e+01
-8.485996289629952116e+01
-1.755456275735419069e+02
-2.444740810570862948e+02
-3.129976090938586708e+02
-3.733285691020731747e+02
-4.716399580264043152e+02
-4.658117437365738738e+02
-3.409332406388853087e+02
-2.732731336634157060e+02
-1.048246262564477149e+01
5.778337349470937170e+02
9.065252562887919794e+02
7.669968555501587844e+02
5.977420532258723824e+02
4.535983320223890587e+02
1.149242985212758441e+02
-3.800426683875837170e+02
-7.669116691213623653e+02
-6.732022837123582804e+02
-2.856396227503834666e+02
-2.223460608908139591e+02
-2.223692414686575773e+02
1.356974841423148348e+02
1.969152603174223941e+02
-2.444604585741098219e+02
-4.045356151991927618e+02
-1.726744792121317857e+02
8.178692703423345733e+01
2.154032920661929609e+02
-4.681839947562483673e+00
-1.986401166258330591e+02
1.816027748792676846e+02
4.609449370213957877e+02
3.261152564660533244e+02
5.019086318940554179e+02
6.195409158526460942e+02
1.476796487963320601e+02
-1.475465481039299220e+02
-1.458740637663107975e+02
-2.028382634879821467e+02
3.604809152629370317e+01
-4.061987177513056224e+01
-9.572446619842911559e+02
-1.242162271307604442e+03
-5.502383300970158189e+02
-3.167801762235736760e+02
-4.137253803036307431e+02
-2.019987796875922470e+02
-8.548840987421903037e+01
9.726691096807863346e+01
4.218067393630091146e+02
6.297412309569785975e+02
1.325204124524578674e+03
1.849804154345676352e+03
8.944703243288691965e+02
1.691909096484431885e+01
4.282336725334019434e+02
5.631085064894517700e+02
1.199146787385711548e+02
-4.667789860284336214e+02
-1.697144302117669440e+03
-2.184360647008302749e+03
-1.335005214961092861e+03
-1.378001692030672075e+03
-1.609968901072802055e+03
-3.980309399038588367e+02
-1.883437321208476760e+02
-1.146233356084353545e+03
-2.385338806186413763e+02
1.708309647359632891e+03
3.010518467239796337e+03
3.583005067872087693e+03
2.086284127294100927e+03
5.821118688163203387e+02
2.253553430004324582e+03
2.957708795892560829e+03
4.655195885556224766e+02
-6.179117868241067981e+02
-1.390056578342691864e+03
-4.574249603600987029e+03
-5.925783106234523984e+03
-4.970562432519565846e+03
-3.957420208137614281e+03
-1.466961310328814989e+03
-2.567805865741765047e+03
-7.844613374061214927e+03
-2.208460878491027870e+03
1.193440342230216447e+04
1.458635052126868868e+04
1.309359156326311313e+04
1.911320234746522328e+04
1.139275434830030827e+04
-1.290219073937978283e+04
-2.138618869756540880e+04
-1.306990710185761054e+04
-1.175753128376511995e+04
-1.015887032379487573e+04
1.703402849081134036e+03
7.256790714540753470e+03
2.639037007619403084e+03
1.571432252876494886e+03
4.134116541797453465e+03
5.285164228680364431e+03
6.090904792458962220e+03
4.271283211160812243e+03
5.168562312639575111e+02
-5.695767759582064116e+01
-1.406297410163624022e+02
-2.334060833723559426e+03
-2.378298111316480117e+03
-1.196332488837107803e+03
-2.458585299292326908e+03
-3.533191541311899073e+03
-2.746970440493516435e+03
-1.547596236114593694e+03
2.448929375463690690e+02
1.155599341809643875e+03
3.953390773457838492e+01
9.028508218315681688e+01
1.730017708280354327e+03
1.992189422295974055e+03
1.640593293396326089e+03
1.853876260471191927e+03
1.255652838345919236e+03
2.910485564010144230e+02
-1.574353498178646191e+02
-6.100270078985790860e+02
-4.445223689452366784e+02
-3.834199932567204883e+01
-1.047627585226033261e+03
-2.002077893245124187e+03
-1.277278201304327467e+03
-5.593905168293985071e+02
-4.874632002968180586e+02
-1.701542346508236392e+02
-6.813270710470078484e+01
-6.010258161975085045e+01
4.655404038643453077e+02
6.924449934468710808e+02
6.680047302488823107e+02
1.088374046074694661e+03
9.507554068312196023e+02
8.482559019590205196e+01
-1.005213406050562241e+02
2.318830900991126782e+02
2.162816619774972366e+02
8.772217501398081652e+00
-4.051815394340266607e+02
-8.118380185848328665e+02
-6.291873549970594013e+02
-3.964766994588565581e+02
-4.951186751625048146e+02
-2.781335799733716954e+02
3.025719545774045116e+00
-1.707486927409358941e+02
-1.905004136342915615e+02
1.212441186811564222e+02
3.189135899046847271e+02
4.714941051754772161e+02
4.340486073433119714e+02
7.881099209792927240e+01
4.946359443528076838e+01
3.307704052821283085e+02
2.254269910230710821e+02
-2.593743214130394392e+01
-3.599448095056884966e+01
-1.296096321425889073e+02
-2.869682609380266172e+02
-2.465084156744979111e+02
-1.689721369266026727e+02
-1.243206107116308488e+02
-1.005381778489541773e+02
-2.250116131994556667e+02
-2.986140437207418472e+02
-1.117848711752885293e+02
8.218745467032282193e+01
1.112425119914513800e+02
7.260260889149432728e+01
3.671387095593908612e+01
7.987056391960634016e+01
1.436783934826578957e+02
8.649273655826773677e+01
6.135216342586413418e+01
1.518727134183348255e+02
9.956496195050846154e+01
-7.049530093538548670e+01
-5.968094455001242693e+01
6.987829624727457656e+01
7.854874096117578119e+01
-3.544935678694776016e+01
-1.489218456128178616e+02
-1.845270011832813850e+02
-1.988570845923940169e+02
-2.857190734004064439e+02
-3.489908327683370430e+02
-2.967492972213186135e+02
-2.496042527244138967e+02
-2.287765510299035441e+02
-5.052774117657200748e+01
3.406965022676245667e+02
7.537743525811633845e+02
9.368088945753810322e+02
8.144069829148420467e+02
4.823158978896219082e+02
-4.615153197115307648e+01
-6.915557316539387784e+02
-1.058140660092957887e+03
-9.425694044119251203e+02
-6.274193754308003008e+02
-2.932076846029587500e+02
7.709650712841354903e+01
3.098165697918891510e+02
3.260718138927567225e+02
3.129951369770798237e+02
3.012789234053777250e+02
2.304198727047082684e+02
1.884792158490470797e+02
1.405022020887123801e+02
-7.114726894420513759e+00
-9.826606719833731063e+01
-6.286537747340913995e+01
-1.064899369735025232e+02
-2.396940051014119888e+02
-2.630356500502094264e+02
-1.963240668292996816e+02
-1.738005577003624751e+02
-1.165798852016935854e+02
4.590230674178921788e+01
1.492076639180214102e+02
8.935577990496676648e+01
-2.331876507554042632e-01
-8.309237620337576402e+00
2.370369212705544726e+01
4.624403643795005792e+01
5.589113209141125083e+01
5.075179203915910620e+01
2.924461245533759168e+01
-9.049974683199632608e+00
-4.665088782793686306e+01
-4.918843624486552812e+01
-4.002364694658857047e+01
-7.663816146993845280e+01
-1.334388287364699863e+02
-1.436588707906603588e+02
-1.026408985187795366e+02
-3.471204184961659678e+01
3.321647879989534147e+01
6.048193720590428768e+01
4.507179563495222396e+01
1.389123192956546049e+01
-2.689120747699594816e+01
-4.721182328808785655e+01
-1.909712883041416376e+01
8.410565195789029502e+00
5.995372154665989939e+00
1.312556901003818766e+01
1.685994689857556494e+01
-1.629085535604136226e+01
-3.918812410561136517e+01
-3.355063145203651231e+01
-5.377625385561411520e+01
-8.194985963647530980e+01
-5.379102830682881375e+01
-6.420978681927763887e+00
-1.526209606563461563e+01
-5.407724876949665571e+01
-5.286815944942688361e+01
-2.916228813813804877e+01
-3.391714738544094132e+01
-2.730745846240347419e+01
3.311075256501058561e+01
7.460135622208437667e+01
4.289191268500057674e+01
-8.185422440888778794e-01
-1.395940754179346044e+01
-2.186014692945158089e+01
-4.549619941586261973e+01
-8.539393364806073805e+01
-9.592637699905304771e+01
-4.683338771926169386e+01
-2.707591504104732394e+01
-5.795870450772487459e+01
-8.811972362887399157e+00
7.258880780320308190e+01
1.859010491437668833e+01
-5.540372351763166847e+01
-5.921150615603153256e+00
1.235602205841783530e+01
-5.451654941874048177e+01
-5.062249857505329942e+01
-1.511840948306002730e+01
-4.536785787068337328e+01
-4.462797017024616508e+01
2.951535810282521766e-01
2.046485226429556548e+00
1.181098012585391999e+01
3.682602180021613947e+01
-1.537469812720431506e+01
-7.138453048441797932e+01
-4.022596879105182666e+01
-2.566428854481623389e+01
-6.286715280886159718e+01
-4.337851154074888882e+01
1.376335568858977965e+01
1.366791033305034375e+00
-5.521500415596218403e+01
-5.953655760671217934e+01
-1.635017946206552608e+01
-7.726236613738670655e+00
-2.670860527144778374e+01
1.188794621805091367e+01
6.237921049514095273e+01
9.938780637847461463e+00
-7.023485235647595459e+01
-5.659469856935363197e+01
-2.338150645426770780e+01
-3.059002744711082400e+01
4.321118456068681724e+00
6.001291733778407433e+01
2.141651644480974070e+01
-7.621397781678328442e+01
-1.227210713306387078e+02
-1.129090560185813104e+02
-8.031469658690903657e+01
-2.653295408564281388e+01
2.663376518545246086e+01
4.268643854092812262e+01
1.983283954278524774e+01
-1.549001588217815240e+01
-2.719457356472794629e+01
2.512115458111097155e+00
2.797571911030342307e+01
3.881103450345136707e+00
-1.248449015770869153e+01
1.335318494014205370e+01
-1.585795592536238274e+01
-9.169124404143622087e+01
-6.389682931972686930e+01
7.618545393029805268e-01
-5.647773527023544204e+01
-8.275311494813561808e+01
3.662460817631315990e+01
5.578093217747711918e+01
-8.483350323055682907e+01
-1.288246124735865124e+02
-9.379903239597479114e+01
-1.412936624758044104e+02
-1.271576254750543171e+02
3.681274108017980495e+01
1.501249588823710610e+02
1.469595633335111984e+02
1.368561893395359164e+02
1.263744238121452526e+02
1.038040893663903574e+02
9.267997692812092225e+01
3.987232411270814225e+01
-7.484055521401336364e+01
-1.819019652012932227e+02
-2.697162205400482549e+02
-3.576432985941558513e+02
-3.873055337517850489e+02
-3.141755806098295807e+02
-2.058207984271364523e+02
-1.195813461309084573e+02
5.358518376416992623e+01
4.066017511338746999e+02
7.319195384118363563e+02
7.813401439324541116e+02
6.172142513701330699e+02
2.965489051887966525e+02
-2.705317719740104963e+02
-8.277341151318787524e+02
-9.418354231619200618e+02
-6.944634861579010021e+02
-4.005637679203221069e+02
-7.372980260076946024e+01
2.351443955718597749e+02
3.155079977435700584e+02
2.353253428692840998e+02
2.015032587332960929e+02
1.988062126611970939e+02
1.780544112202436509e+02
1.481852572826413734e+02
5.415835410203872868e+01
-6.535449328172335015e+01
-9.802099388136662128e+01
-1.075886900963510016e+02
-1.574717468002853309e+02
-1.453485482810613689e+02
-8.954594093108977404e+01
-1.188990921311452809e+02
-1.615018234142672213e+02
-1.014515235195760852e+02
-1.905487519218623405e+01
1.064290442569078010e+01
3.012368297568364994e+01
5.847978044659302554e+01
8.578933770176007556e+01
9.430706593660781323e+01
4.877560384804866089e+01
1.389376659521275315e-01
1.522486148401023698e+01
5.438444165377884332e+00
-6.954582113651335362e+01
-6.903512166196433952e+01
-8.353633889134087553e+00
-5.825073288446004938e+01
-1.385676721862268437e+02
-8.704737152414492130e+01
-2.642691223847824489e+01
-5.998811867314051227e+01
-4.644977517025100155e+01
2.921411907748987602e+01
1.787934128308506843e+01
-2.919580485016177107e+01
1.975980968267644400e+01
7.403908138786584914e+01
2.699226500285227814e+01
-2.850676708652072122e+01
-3.111026621301744299e+01
-6.339523935103846952e+01
-1.052545736950223443e+02
-3.965125805461718755e+01
5.695373724302009322e+01
3.157298319107387741e+01
-3.523075872068283587e+01
-3.832322719124099564e+01
-6.280215789965932771e+01
-9.185267200865150983e+01
-1.096039021945497183e+01
5.468403152331750050e+01
-8.758666586812456245e+00
-4.293616239207328533e+01
-2.239999985009016470e+01
-7.382537284803132138e+01
-7.369493579220238644e+01
5.101410177803795420e+01
6.981693745427850217e+01
-3.139724062822797279e+01
-3.891774394054074548e+01
-1.790624111158679810e+01
-7.221846204988344198e+01
-5.810878012723875941e+01
2.578721732998709726e+01
2.634895808509980952e+01
-1.585852389014024766e+01
-2.861101418654963524e+01
-4.589661939917473887e+01
-3.564678126907443811e+01
6.075915139033263301e-01
-1.923019489317069386e+01
-4.504152892752368587e+01
-2.012059560710151018e+01
-2.960718939400839389e+01
-6.234059227233343847e+01
-3.587602096323158207e+01
-1.413460003892963712e+01
-2.958948638152573452e+01
-8.568622500122028640e+00
1.942233257745784059e+01
2.175685689158540725e+01
5.673840383198087522e+01
6.104011273446050012e+01
-3.961278096873163435e+01
-1.066153412350377607e+02
-7.664467850373095814e+01
-8.721218639263716454e+01
-1.134076116546303012e+02
-2.144554491230384841e+01
7.056931709120397045e+01
1.235951395702951316e+01
-6.093694024281121813e+01
-2.552830927858409993e+01
3.520516605284573330e+00
-2.705697117394960927e+01
-1.073636753347753015e+01
4.236610585876046287e+01
2.950913439546400241e+01
-2.250559075802398468e+01
-4.901241353223062447e+01
-5.371568703673740686e+01
-2.251052026133974238e+01
1.202275533310795552e+01
-2.965112929632688576e+01
-6.176698522803539504e+01
-5.031610091318906797e+00
-2.140810843589513368e+01
-1.165322154753561108e+02
-5.574544278887445614e+01
5.469888704340895913e+01
-3.450227965779762940e+01
-1.103402696317938876e+02
6.580878905943961854e+00
4.888500704183446288e+01
-2.957564639365169867e+01
8.812546782969057801e+00
6.717534697725255910e+01
-2.630036205200013910e+00
-3.816884260560274811e+01
-5.000284902446768598e+00
-1.438373892531151554e+01
-2.550481799720135001e+00
1.769013614625650632e+01
-5.264135937771911244e+01
-8.306458974097181169e+01
-2.320107938243398848e+01
-5.378005682718065117e+01
-1.260026539643609169e+02
-9.425179550049175248e+01
-8.852821448640250424e+01
-1.450542245064611109e+02
-8.150091532365387081e+01
6.234538682247924157e+01
1.263688756921739582e+02
1.394279223217581318e+02
1.326896809713701089e+02
8.526788382374623154e+01
6.788339014368342816e+01
9.589609619139866936e+01
8.638964380780431895e+01
2.509904312405831561e+01
-8.280094012155734617e+01
-2.400813817612828984e+02
-3.528055777857379098e+02
-3.528888561697632440e+02
-3.062335499638015790e+02
-2.583048545289632898e+02
-1.894136265625460283e+02
-9.043389325341053109e+01
9.243588667626910649e+01
4.120377900049612094e+02
7.366738066126874855e+02
8.337030209907488825e+02
6.319077951184684707e+02
2.041059516784077630e+02
-3.712710156705271061e+02
-8.796125167400346072e+02
-9.837585032333977324e+02
-6.833091264713377768e+02
-3.373068543095077416e+02
-6.053025717260034355e+01
2.448128354522589802e+02
3.914770536095870170e+02
2.620400672368143091e+02
1.808045030146330419e+02
2.622480453196641292e+02
2.071677413903518641e+02
2.227319194071913699e+01
-2.369644034407319566e+01
3.638144521450577429e+00
-6.441142786211185012e+01
-1.407442836477973458e+02
-1.479579637471897229e+02
-1.468965525517295703e+02
-1.654209864102302561e+02
-1.730034962167721346e+02
-1.140364119669908263e+02
1.025038075440583185e+01
6.861214977714014651e+01
8.724506004880225873e+00
-3.322194165952986111e+01
2.007910562314091152e+00
3.173819557700727501e+01
4.147297035822180078e+01
6.946083276303465937e+01
8.786280961928829925e+01
5.518922580311068771e+01
-1.228320074028921383e+01
-5.582105087312677938e+01
-4.803525563818904232e+01
-3.692142041167431188e+01
-6.513013699173545490e+01
-1.110334076003082373e+02
-1.304996162060243705e+02
-8.752479904802677879e+01
-1.954324567938463275e+01
-1.572776976248341541e+01
-2.563861968747590581e+01
3.790569703562596970e+01
5.230370078608481066e+01
-3.785511897114551516e+01
-3.999708751989980726e+01
4.678720615791513637e+01
2.575973847493041546e+01
-3.535480631583021705e+01
-5.734795059293837483e+00
8.110472092002016353e+00
-1.772568545788175598e+01
5.222420061517851764e-03
-1.259790968407511258e+01
-6.470363292036257974e+01
-4.418420402748834164e+01
-2.998751735402602137e+01
-1.019975234346946706e+02
-1.159577269405552613e+02
-4.717479804023743384e+01
-3.455038261915854036e+01
-4.197850667464744845e+01
3.109575644645611803e+01
1.170442628578371824e+02
1.144065043118046248e+02
2.302493770642316306e+01
-6.888946244069784086e+01
-8.088666081835012278e+01
-6.061794199848043263e+01
-5.878760724118063763e+01
-9.832979861934390442e+00
5.647302238449908884e+01
1.730938039329356215e+01
-7.321950654604668784e+01
-1.053227488736287967e+02
-9.978597830973136240e+01
-5.583027379855464289e+01
1.834805080181271109e+01
2.286621157353898326e+01
-1.311748090472379147e+01
2.843273937872798030e+00
-6.163313513687626255e+00
-4.817932569321295944e+01
-5.305406686160161200e-01
5.617753318283367037e+01
1.063349223550949674e+01
-1.764218223161680399e+01
-6.484668371410425181e+00
-5.463125444052074897e+01
-6.653932913532470650e+01
-1.416790425077133264e+01
-6.410729957679666313e+01
-1.341324921369028118e+02
-4.840268389433107643e+01
2.695929372571908189e+01
-1.485690625829517941e+01
2.205094366327899635e+01
1.130634888976067884e+02
4.319819567960936268e+01
-8.741540866222349848e+01
-9.025505314383416078e+01
-4.935764302497101141e+01
-5.211585537155433201e+01
-3.938609217781459648e+01
-8.180381309054290284e+00
6.223625259502263418e-01
-4.937959083048511388e+00
-1.756585006373130753e+01
-1.096797684628828407e+01
3.747708443123595146e+01
4.871071917924643202e+01
-1.894898491268263996e+01
-5.833797556182672395e+01
-4.443345027461620589e+01
-7.483275803167292395e+01
-1.012080828514478128e+02
-3.288952165115870940e+01
7.944915158780361253e+00
-5.110285432046525500e+01
-5.638868942810313456e+01
1.873303829027918255e+00
-2.240404371449608334e+01
-4.146293369413962182e+01
6.133183126345137737e+01
1.101499784727968319e+02
1.794645748422617615e+01
-3.344289812350288571e+01
-1.804790054843686775e+01
-5.882659041169525693e+01
-9.506196572123148769e+01
-4.280892817952895513e+01
1.983493277970270441e+01
2.747216949070325853e+01
-1.100846460566354423e+01
-5.627770955799601893e+01
-5.156736168768789241e+01
-3.650241336126192238e+01
-8.017313983329486859e+01
-1.045340960662627623e+02
-6.795957081276021938e+01
-7.072276124919378049e+01
-9.100653951523298701e+01
-2.733773765632134811e+01
6.702395141455862415e+01
1.193826362159336441e+02
1.330529918185177110e+02
1.104912699424776434e+02
1.159607380712515408e+02
1.672250181219384615e+02
1.204002339673617428e+02
-2.596273146255260045e+01
-1.174794297136416930e+02
-2.196416060259431333e+02
-4.208716648261602131e+02
-5.241913703736585148e+02
-4.110946476969246532e+02
-2.424196214233153341e+02
-1.200988838865694674e+02
5.349880872778312835e+01
3.765983217064373889e+02
7.077499135650700737e+02
7.686123542084309292e+02
6.059665503345889874e+02
4.197205613942417699e+02
1.185174252923650684e+01
-6.530644844556417183e+02
-9.757006094077981970e+02
-7.658789718010399383e+02
-5.196904609388855079e+02
-3.019573114005668799e+02
8.156254214366049382e+01
3.148960139375556082e+02
2.510772681254356655e+02
2.159592572313324865e+02
2.431091968094563072e+02
2.160776640661044041e+02
2.312690347402568420e+02
1.835243977504105146e+02
-2.185372828197086292e+01
-1.160027308388079774e+02
-8.155703634474929231e+01
-1.687503788253819721e+02
-2.462837160551218290e+02
-1.615531733114317205e+02
-1.194689521271710078e+02
-1.654374850927565603e+02
-1.407281003298774067e+02
-5.278923707086353545e+01
3.955068700668238080e+01
8.993108872651339425e+01
5.249204131110479921e+01
4.800429716449506401e+01
1.300751937261426292e+02
1.266880507884455227e+02
4.613592239359300606e+01
2.931094155479739172e+01
1.073712958812745200e+00
-7.679354516488393756e+01
-1.166516310486220362e+02
-1.544161158445310207e+02
-1.582946013889944368e+02
-5.171284584600303447e+01
-1.667212430555268909e+01
-8.419739686727589856e+01
1.169852622640825146e+01
1.489383242985902882e+02
3.129489018419608826e+01
-9.760683861443683895e+01
-1.091165297618550767e+01
1.598543712575666831e+01
-8.772587567107993323e+01
-5.740686205778899165e+01
5.757620629274297386e+01
3.761780729257842637e+01
-4.238969174390108918e+01
-4.192609914167825025e+01
-1.539672221965712495e+01
-3.094928221183032235e+01
-3.976969713230367631e+01
-4.217536025588177750e+00
8.505130385293096396e+00
-2.417850208388052380e+01
-6.359660142801988769e+00
3.351444492408371900e+01
-4.392576670625923185e+01
-1.438093522802276141e+02
-1.067373861694870527e+02
-6.302182022789437355e+01
-8.573548408700055745e+01
1.527691464809081268e+01
1.814441837052254982e+02
1.368016916959411162e+02
-1.655912650042273526e+01
-3.560943007102824254e+01
-3.937648449966748387e+01
-1.238011020802385929e+02
-1.050555565991506057e+02
-2.908480461211055967e+00
-2.178601646567579664e+01
-7.228724303233127557e+01
-1.348837282790964309e+01
1.771994312032375873e+01
-9.173418179358929336e+00
4.902466469388063786e+01
8.598154354491862250e+01
-3.166851659710993871e+01
-1.106829906103293695e+02
-5.887643282896193142e+01
-6.391360379776797629e+01
-1.134967213751892530e+02
-5.139827746837899269e+01
2.845865707925335997e+01
1.918742071354142098e+01
2.249937050035529751e+01
6.645941325403515521e+01
6.263570025092034399e+01
7.216075729458225396e+00
-6.251846882036509356e+01
-1.117833830334353706e+02
-9.181388694944030249e+01
-4.351467594372935821e+01
-3.152121092070720110e+01
-5.518065908011248411e+00
4.020283628006787779e+01
9.143892147022324224e+00
-6.254812893562822751e+01
-5.056816432616581380e+01
-2.529413291655551177e-01
-2.743343344270895301e+01
-8.038074986460728155e+01
-4.830917565479514053e+01
1.552011536048178186e+01
5.225448982082287586e+00
-2.486239321406642944e+00
8.366857095662385291e+01
1.019971379025840861e+02
-5.626857830660783577e+01
-1.502501391855786324e+02
-5.202793604119936788e+01
-7.634554269341769839e+00
-7.850955325537698570e+01
-2.782883668781448350e+01
9.118732649098230070e+01
2.118482719181632490e+01
-1.297969970362351262e+02
-1.127685996416911962e+02
-2.709974291641462329e+01
-5.618930159380541056e+01
-1.012653827484475784e+02
-2.619993212813701078e+01
7.659565043573951471e+01
8.369641846180668665e+01
5.119645248882937949e+01
6.756456583247209835e+01
7.750731933572002674e+01
2.056523068983619140e+00
-9.691234994267205138e+01
-1.071468569890960509e+02
-3.659820906217692027e+01
3.528974735883210201e+00
-4.060872663051515730e+01
-8.993248129927087575e+01
-7.960525378677510844e+01
-9.081789780652549382e+01
-1.618369884272005095e+02
-1.454303884867309762e+02
-3.236385761990465681e+00
6.574297956048472713e+01
1.601305663040000482e+01
3.203150418610945849e+01
1.131226512505328827e+02
1.093317345023023961e+02
8.471542856923488785e+01
1.441556499391232933e+02
1.744890957747977609e+02
9.648049052277060866e+01
-1.416778598521500854e+01
-1.334889610279809347e+02
-2.492270498566591073e+02
-2.991225191585863286e+02
-3.356926004431425099e+02
-4.065409926045852558e+02
-3.851492090512550703e+02
-2.527881039592964214e+02
-1.229132152224381116e+02
1.209602801018974674e+02
5.723454746685654300e+02
9.117509640952621339e+02
8.851371203632668312e+02
6.318698317553503330e+02
2.097198119994235981e+02
-4.153567437676376244e+02
-9.239056984713588463e+02
-9.838030875521149028e+02
-7.326725146623820137e+02
-4.145082940961348754e+02
-7.083748243567897873e+01
2.100803926320084827e+02
2.960580185131170197e+02
2.540853784730395262e+02
2.334679381764039761e+02
2.516454004082513052e+02
2.462700479715462052e+02
1.853498222256417591e+02
8.637168536614139214e+01
-1.495434948649845452e+01
-1.005024251859563691e+02
-1.526655947265146835e+02
-1.564970850712246033e+02
-1.487327966430446793e+02
-1.673645366176121740e+02
-1.785037044799677801e+02
-1.541368784021085787e+02
-1.207331209554755560e+02
-6.885166651469086219e+01
2.239816306496479470e+01
8.029573435257472624e+01
5.468519355847932673e+01
4.246459336206693536e+01
9.693765664966576878e+01
1.075593594786279539e+02
4.786453108161341419e+01
4.320232542262422726e+01
7.399118469434469603e+01
4.128768436448304158e+00
-9.971947984821682098e+01
-1.014437753381400285e+02
-7.686339790996255772e+01
-1.108986652700247362e+02
-1.245886591125899230e+02
-8.670078614240031811e+01
-5.611955638913450883e+01
-3.917403306322002265e+01
-3.324494103198271944e+01
-3.233092328521036052e+01
9.750123903913998191e+00
4.748053100415690153e+01
9.558771781249081556e+00
-3.549527546025501579e+00
6.831849429236352478e+01
8.337367446810432625e+01
1.717344786639662146e+01
7.272264679466172055e+00
2.143984079565761292e+01
-4.628064901420002286e+01
-1.175117123073504786e+02
-1.112125439102070459e+02
-8.769624937982050028e+01
-7.645689167438614220e+01
-4.398872067735142366e+01
-6.937641029027695083e+00
5.507945727789277157e+00
1.385945018697600162e+01
2.574447814814619306e+01
1.649786406578073183e+00
-5.703837306955076514e+01
-8.093691244579309796e+01
-5.893216526519971410e+01
-4.644911183922092590e+01
-1.906255079469230651e+01
5.726559039162459186e+01
9.246428255689355069e+01
4.412607137065669605e+01
-1.424375990601497222e+00
-2.025959104222898688e+01
-3.473824653522281380e+01
-2.816938535521970977e+01
-4.249118916347010355e+01
-7.864014304503555763e+01
-3.174439650984082917e+01
2.901615107546135874e+01
-3.160120683065606784e+01
-6.922616117355619281e+01
-1.001545997793131804e+01
-7.115178393846986182e+01
-2.084851962946533490e+02
-1.559595960226284035e+02
-2.176835484806377252e+01
-4.580006693437063348e+00
2.106669206739533706e+01
9.785566294777510166e+01
9.564133725786783202e+01
8.210996123918407363e+01
1.267931233302088287e+02
1.127672662361134428e+02
5.198807686755441182e+01
3.831734703692345789e+01
8.046315959031709042e-01
-7.989895795879401419e+01
-1.049925382799470981e+02
-1.173020971955141079e+02
-2.008787912397623359e+02
-2.849823065854803303e+02
-2.888890899525375175e+02
-1.985993041896817317e+02
-3.846960206935898441e+01
5.902526769147276298e+01
1.404797183260721738e+01
-1.499047360562011377e+01
7.258794491657826597e+01
1.446394191424258224e+02
1.898121668832103808e+02
3.265557206966740296e+02
4.081699291595452337e+02
2.358858598483330695e+02
-2.387771169249003123e+00
-6.165187042542501672e+01
-4.045974298504134481e+01
-1.042313474560841797e+02
-2.519042854021276128e+02
-4.192463298120707123e+02
-4.965462559233912998e+02
-4.370322521206769579e+02
-3.618995549425311538e+02
-2.900412499614810713e+02
-1.282298240181060009e+02
-1.733701583522676870e+01
-4.834385936062781042e+01
8.507710125617046515e+01
4.995579301518550324e+02
8.119767284138431478e+02
7.886913553305271307e+02
5.840845005938764416e+02
3.648002083434721499e+02
2.082954443915124330e+02
9.357142356093770275e+01
-9.180036221475805291e+01
-3.240457646306953734e+02
-5.398430612276205238e+02
-8.259537576777145205e+02
-1.072277910594696095e+03
-9.842264821315549170e+02
-6.846941533741638750e+02
-5.481217559100384733e+02
-5.385091540767156175e+02
-3.478706174847355896e+02
1.410267961183148202e+02
7.999724928895444691e+02
1.341675970912027879e+03
1.541888873643619263e+03
1.478512522519664344e+03
1.356674741313062896e+03
1.254191510494214072e+03
1.132347084261439477e+03
8.342436931039675301e+02
9.420923363639965942e+01
-1.252647166321425857e+03
-2.928910250140525022e+03
-4.084485606102092333e+03
-4.028632907295648238e+03
-3.145959737498145842e+03
-2.187392701720523746e+03
-9.619485603524503858e+02
1.026396112984726642e+03
3.409548588102622489e+03
5.577326694333002706e+03
7.199925372608067846e+03
7.342005240707832854e+03
4.739282205492363573e+03
-2.535318525036182962e+02
-5.255759065324858966e+03
-7.945245211666418072e+03
-7.775614754400899983e+03
-5.491559064371380373e+03
-2.109353613534256510e+03
1.005533986016150607e+03
2.444396283646323354e+03
2.256357916785784710e+03
1.905345062784030233e+03
2.097575809727314663e+03
2.199174601566392084e+03
1.834975615650581858e+03
1.278218403409448456e+03
5.940780930821514403e+02
-1.778358088978717433e+02
-6.555596002663304489e+02
-7.260441884205538372e+02
-7.640396996292888616e+02
-1.025904901915082291e+03
-1.373563465436204297e+03
-1.487265465254758738e+03
-1.166422409709089834e+03
-5.525822388012754800e+02
2.810579395112293710e+01
3.757958992186012779e+02
4.623369596668516692e+02
4.539481241466154415e+02
6.137153567465245487e+02
8.686001018556034978e+02
8.778740211162048581e+02
6.450310611944477159e+02
3.898459919547728987e+02
6.947588886215423543e+01
-2.602711871841389097e+02
-2.913253657664530465e+02
-1.476739021085473951e+02
-2.750165352724920922e+02
-5.855367378560283669e+02
-6.768425254152251682e+02
-5.496391023433329792e+02
-3.647970081141351102e+02
-1.241134174933908696e+02
5.923176170466048518e+01
5.133959683021110010e+01
7.941591656800195409e+00
9.129047878072194067e+01
2.295805942196956835e+02
3.744395004080645322e+02
4.942878143743584474e+02
4.186462436301398498e+02
1.538734283715711229e+02
-2.998035933189192193e+01
-5.822267788042766767e+01
-6.497242399586869510e+01
-7.142749538374370388e+01
-1.180846942563758262e+02
-2.808884511130275996e+02
-3.954027449846428226e+02
-3.456823787000759580e+02
-3.056508963631058009e+02
-2.692628905336484308e+02
-7.471218297307538592e+01
1.049536763393197418e+02
1.139299721686033280e+02
1.598413275116382692e+02
3.066732591985820022e+02
3.581227099835286367e+02
2.552879036756490905e+02
6.988606465966867631e+01
-7.441246285551690676e+01
-5.886587734312447395e+01
-2.312318778885448722e+01
-1.220693290113324565e+02
-1.901051969879682417e+02
-1.589591831524349743e+02
-1.905836836464278576e+02
-2.260136179005800159e+02
-1.089777172082294072e+02
9.262383846154341427e+01
2.005083645345616219e+02
3.994439188893699821e+01
-2.817460411671946758e+02
-3.249184918456892319e+02
-5.867095075896652645e+01
1.149238259003831786e+02
1.929992136787854236e+02
3.047286484104726014e+02
2.498271685563721007e+02
6.915773313313562198e+01
4.047927924552851664e+00
3.385138123435301338e+01
1.619670856505262861e+02
2.489754397378318060e+02
-8.608513830752005447e+01
-5.425374176959576289e+02
-5.166129578366573014e+02
-3.006883296914295443e+02
-3.001669519208299448e+02
-2.898624595723798620e+02
-2.001239865533152624e+02
-9.365825510271444898e+01
1.042500608490940124e+02
2.268986439794842056e+02
3.306902489836267023e+02
6.129700427717433513e+02
5.551600425333543853e+02
3.894446970002285013e+01
-3.180653534673415805e+01
3.829377452897861076e+02
4.605482408466235711e+02
1.342151754270904576e+02
-3.234735402906308082e+02
-6.469472136275110188e+02
-4.825518992979235691e+02
-3.556852424849535055e+02
-6.692740576155787267e+02
-6.478256878869389084e+02
-6.114452867344554079e+02
-1.370216868537330129e+03
-1.386749486311149667e+03
1.955240468872164854e+02
1.459108751910906221e+03
1.897489726353992864e+03
2.352632644290941244e+03
2.098551404456198725e+03
1.389053515925265401e+03
1.315623339968717346e+03
4.833289668775980772e+02
-1.537052309700979322e+03
-2.760367347522473665e+03
-3.593999532742522661e+03
-4.286735464130090804e+03
-2.070482765584525623e+03
1.645813008274893718e+03
2.227332913710339199e+03
1.063639555190167130e+03
8.136219402980144650e+02
-7.064615081380949277e+02
-2.082889336342737352e+03
1.282750712295875019e+03
5.637548354693450165e+03
4.689461280836247170e+03
1.412672289862556909e+03
-6.265665728084199770e+01
-2.375084653343574701e+03
-5.563719065892472827e+03
-4.452979491520740339e+03
1.028455082025097056e+02
1.333835709962658029e+03
-1.256863712561057582e+03
-2.024417451651673218e+03
-4.024294628003572427e+01
9.569810929768852930e+02
9.344785996656490852e+02
2.507186193964068480e+03
4.306334713448174625e+03
2.853844084494797698e+03
-1.134505738324302456e+03
-3.382878536765116678e+03
-2.290030778197626205e+03
-9.311320232069195981e+02
-1.177408406335777272e+03
-9.962665425930953234e+01
3.325604123127375715e+03
4.214527958086057879e+03
4.173964522995385664e+02
-2.979118682475644164e+03
-2.676125028309439585e+03
-1.693675410014157478e+03
-2.084828378150730714e+03
-1.415497008012622700e+03
1.331165821063809290e+03
2.400721806990085042e+03
-4.114553021313184900e+02
-2.197811132367901791e+03
1.466265086320216597e+03
5.661833921415178338e+03
4.237839818414091496e+03
1.542907533577852064e+02
-1.826300779933133526e+03
-3.224479808449163102e+03
-5.179013427063774543e+03
-4.159606126625119941e+03
9.323109020617066562e+02
5.071973675888491925e+03
3.551994031058904511e+03
-8.389300183699293711e+02
-1.225900091270829762e+03
1.825800496949369744e+03
9.262717231711681052e+02
-3.550234444478473506e+03
-4.110596704339675853e+03
-1.955770607597924482e+03
-2.629004573115933454e+03
-7.283449787608121824e+02
8.107475240391347143e+03
1.203211417814401102e+04
3.337536673851171599e+03
-5.819923090412768943e+03
-7.087569563658559673e+03
-6.984075133867112527e+03
-4.901517444927168071e+03
4.332504646935813980e+03
9.824053609333694112e+03
2.759120709709493440e+03
-4.322169192735595971e+03
-3.232329265380683410e+03
-1.791048038946481938e+03
-3.580904346387817441e+02
4.711630935107387813e+03
4.586176295495451086e+03
-3.829449290301044130e+03
-8.277109714439660820e+03
-3.938688351358260206e+03
2.292544594846928703e+03
6.334570640170445586e+03
6.493920974725744600e+03
2.090259868484117305e+03
-2.942980865268351408e+03
-4.949893967784541019e+03
-2.410924633179897228e+03
4.169669623795408370e+03
6.889003605734588746e+03
-8.726767689970873221e+01
-8.132474700153181402e+03
-8.816475316944446604e+03
-5.113424104823802736e+03
1.234390971685392742e+03
9.585658134876379336e+03
1.154639314235416714e+04
3.661901188997563622e+03
-4.832118621998543858e+03
-7.259375203800549571e+03
-5.481582727143403645e+03
-1.439778072584931806e+03
2.905091105205663098e+03
3.159859802155379839e+03
-6.685091466399038609e+02
-2.171997355803989649e+03
9.090624703112099496e+02
3.727815781808347765e+03
4.955660293983545671e+03
5.635695528284833927e+03
1.053142503192185586e+03
-7.464182003868912943e+03
-8.985664706338548058e+03
-5.063853978669773824e+03
-5.001372128533927025e+03
-2.924039698936698642e+03
4.977610523497628492e+03
7.510489672685794176e+03
4.951296324628196999e+03
6.199591157406050115e+03
5.716541913903872228e+03
1.329897133962861631e+02
-3.794899645955419601e+03
-6.661926856157428119e+03
-7.009823908109731747e+03
-8.590345638404295414e+02
5.929176779933759462e+02
-4.094780146284654620e+03
1.021821119456662586e+03
6.961872360571355784e+03
-7.763623907804668534e+02
-2.532748925686681559e+03
7.237723639219643701e+03
4.086034222652182962e+03
-5.611579033850989617e+03
-1.532447621530614015e+03
2.381045947727503972e+03
-2.428218658001983840e+03
-2.119124305647920664e+03
-1.505141638877884418e+02
-3.079279174647265791e+03
-1.618184771719423452e+03
2.129904839565988823e+03
1.978835668853040261e+03
4.118801815136393088e+03
5.515390876804623076e+03
5.550510599935970504e+02
-2.617486490571446666e+03
-3.169142030400618751e+03
-4.805908374609402017e+03
-2.116362744701075826e+03
-2.597634058844506058e+02
-4.133002958786468298e+03
-3.036326303297198024e+02
7.747182658054850435e+03
3.961261334364714912e+03
7.572935729461754590e+02
5.698029149810565286e+03
7.008055599349796694e+02
-8.254301791520443658e+03
-4.567263278948865263e+03
-1.222105528821293774e+03
-2.149745112396703007e+03
3.856504497676445226e+03
4.300053424959462973e+03
-3.548766458692961351e+03
3.409183813527267262e+02
5.075926058069600913e+03
-4.538205568705284350e+03
-4.907695270294348120e+03
6.678964709610689169e+03
2.634104996892760482e+03
-6.034046278508628347e+03
1.931722305019300393e+03
6.426048551224356743e+03
-2.616821945059870359e+03
-4.952022783853712099e+03
-5.443735114063343872e+02
-1.593033811394261193e+03
-1.842112847509806443e+03
1.842636308673500935e+03
2.652069668765713686e+03
2.020423572772398529e+03
1.552824561941266893e+03
-1.186884209861374529e+03
-1.994091512767013228e+03
8.022499330991960278e+02
1.116183675109915839e+03
-8.804890606680113478e+02
-7.467075044044819379e+02
-1.365969223994088679e+02
-6.859251891863917763e+02
-4.475311630713047180e+02
2.543897925601739871e+02
7.157286410753584960e+00
-5.604222777188949749e+02
-7.614124182143951884e+02
-2.933423672808862648e+02
1.044740977297488598e+03
2.167757974102537901e+03
1.746246837276794622e+03
8.289539025462318023e+01
-1.340406977918638859e+03
-1.600896243774471259e+03
-1.077415029526543776e+03
-2.609845021698047276e+02
7.228481228707486252e+02
1.030524353419475801e+03
1.872505613376067686e+02
-5.932878142930910599e+02
-5.759675332900706053e+02
-3.892626378072160946e+02
-1.090754689476222694e+02
3.488495192447932709e+02
3.441072554948622724e+02
-1.060379719100701479e+01
5.153562667867819158e+01
3.327255064074169582e+02
2.320519749158681577e+02
-9.978149405159618368e+01
-2.011587000930260842e+02
-1.020736572405645006e+02
-1.624955891839703668e+02
-2.147442486492731177e+02
9.379007290546803688e+01
2.200539802427445295e+02
-1.957366894768163377e+02
-3.492473939947892632e+02
-5.284612299148628267e+01
-1.098275007495839617e+00
-1.666429401087252771e+01
1.786149580027515924e+02
1.122870742857935795e+02
-4.710902353738834591e+01
1.059155143438981810e+02
1.440171108961776838e+02
1.650177958134559475e+00
-1.544235593461536027e+01
-2.061071030145675991e+02
-4.357173184742428589e+02
-1.866326986094758809e+02
8.406183779593050076e+01
3.595880815868069647e+01
1.536108307307032987e+02
2.592302584173901892e+02
-1.804315171754051050e+01
-1.355848100641346718e+02
7.489805207849147450e+01
1.203855794233224685e+02
3.216067263943864418e+01
-5.545362352322866428e+01
-2.378175096503681516e+02
-2.627017840122611574e+02
-1.017490293534844312e+02
-9.673074199313649046e+01
-5.585082383115354077e+01
1.830175370196321012e+02
1.744597002936271224e+02
-6.270925951386091413e+01
-7.529830842647653810e+01
7.651370139612780008e+00
-3.847022541847321264e+01
-4.019744494740332641e+01
1.705380775406258209e+01
6.913551688049750510e+01
1.794330572545360099e+02
1.582468474048419864e+02
-7.740745883736508404e+01
-1.648656047757069132e+02
-8.059944612720154566e+01
-1.806948775138874907e+02
-2.983058642142895565e+02
-1.089174011690386124e+02
6.417907018727976265e+01
-6.560497053609867635e+01
-1.287403637029352410e+02
8.622080827760740362e+01
2.298795850704296129e+02
1.618011388951950380e+02
1.196949130955969025e+02
1.033259295427614148e+02
-3.338464163240286098e+01
-1.439413629657542515e+02
-9.598830865780900012e+01
-3.451569956028934882e+01
-2.686514181701583226e+01
-2.757065454223315015e+01
-1.058602749047054488e+02
-2.129953952602695040e+02
-1.700282252389698101e+02
-5.899181759448910611e+01
-3.403869268104727297e+01
1.715537808322220314e+01
1.231480780892741649e+02
1.163989364980566990e+02
5.515315243425217773e+01
9.596192490147456056e+01
1.222472961203311286e+02
2.736196493428659338e+01
-5.363152779729122699e+01
-5.814663693482900442e+01
-6.825784789714377609e+01
-9.898223908696994044e+01
-1.228035851689695477e+02
-1.383224773408244630e+02
-1.423740387555974678e+02
-1.389773598470338243e+02
-8.681620657038352817e+01
6.557739711190033915e+01
1.830517413065082337e+02
1.065916018940328200e+02
-2.256710677149681388e+01
-2.939667645111998695e+01
-1.707614140054715435e+01
-3.189931086618786082e+01
6.012434100968917505e+01
1.801311550985134033e+02
1.208629473718616083e+02
-5.206419456134080548e+01
-1.567384381866286276e+02
-1.763119841877522731e+02
-1.532721862224595952e+02
-1.173468673599309682e+02
-1.030720261916805924e+02
-7.925847383893224674e+01
-3.247544418845097880e+01
-2.065360290341311611e+01
8.405193694103388680e+00
1.185902133235310316e+02
1.541377580266673135e+02
3.563861025382810510e+01
-4.112042718957110310e+01
-1.184064412499304453e+01
-2.752119819487965913e-01
3.109824859610105108e+01
1.046445424606584993e+02
5.302887546658535456e+01
-1.001994746612155893e+02
-1.564571267658475620e+02
-1.482927594931884983e+02
-1.492108759665762818e+02
-4.766437211117545303e+01
9.055384091971072280e+01
3.410977759336815751e+01
-1.357221530324154060e+02
-1.771796854829697736e+02
-1.294824301681180145e+02
-1.073443754900842606e+02
-2.218163214851307430e+01
1.529997337381239504e+02
2.381691359848719003e+02
1.648673381640210778e+02
9.603549453423704563e+01
1.249510795592343442e+02
1.413639249878217186e+02
6.652431358190590061e+01
-2.453109902781305962e+01
-8.532321437022085320e+01
-1.828820114757838269e+02
-3.260970548885914582e+02
-4.041385426138340335e+02
-3.670943151283350971e+02
-3.025385281413456937e+02
-2.694577414158838451e+02
-1.885070804686732515e+02
4.664884791519135376e+01
4.070575862952132979e+02
7.144205084748601848e+02
8.263492825333448764e+02
7.566441735256764787e+02
4.840019162188050927e+02
-8.705953413782920336e+01
-7.320015280097799177e+02
-9.773043934167168345e+02
-8.045538571725213615e+02
-5.863705935536061133e+02
-3.400890417663126755e+02
7.211977664551426415e+01
3.536511596894360991e+02
2.758538961935919360e+02
1.660412818015745984e+02
2.655380305013642896e+02
3.373377803849559768e+02
2.145007410449310612e+02
6.601108040275750000e+01
2.390323359904169465e+01
-1.051581140564862693e+01
-1.276847840590930900e+02
-2.071635263604227362e+02
-1.363010552724666695e+02
-6.831589109582948538e+01
-1.512348156429215749e+02
-2.421729090040341248e+02
-1.905822278020215208e+02
-7.544399820434148296e+01
-1.789301779810178061e+01
-1.895613964370950910e+01
2.670998330275101651e+01
1.521414932440995926e+02
1.779365734250475839e+02
6.776980170173078477e+01
9.241078232198685782e+01
2.104873446402653201e+02
7.844384225654148679e+01
-1.496541690251286809e+02
-1.430708066619206136e+02
-1.201724497839398396e+02
-2.317131559725660850e+02
-1.919638396409523580e+02
-2.733857707345833887e+01
7.166033082744768024e+00
2.185380390073992274e+01
8.221551049470238581e+01
2.368546248704508983e+01
-5.259576467292569646e+01
-1.831055763051563900e+01
-3.055581731434309845e+01
-7.048623439926029732e+01
2.314744925522309416e+01
1.072515981790626256e+02
4.718633327110349995e+01
-1.116018349333153736e+01
-8.408997145294847542e+00
-2.871231487338912558e+01
-6.308051076986554051e+01
-7.324784174932040060e+01
-6.285132692279204036e+01
-4.766948305559823496e+01
-6.592612336255365335e+01
-8.970336840994238514e+01
-4.500470907234470985e+01
1.833336077369337147e+01
2.461499011700023942e+01
1.920363403716668316e+01
3.218276966961600749e+01
2.946861072337592091e+01
1.364798003854680175e+01
-3.974315789196225523e+00
-2.242323796693866100e+01
-3.582214464424195199e+01
-6.807815182757687467e+01
-9.513929293429966094e+01
-4.517855194096979687e+01
2.254857113282109538e+01
1.727931245351388867e+01
1.438444880401583248e+00
-7.868024899512747083e+00
-8.556867135169932226e+01
-1.400347011246273894e+02
-7.109574817821780357e+01
-7.755957110394003706e+00
-1.213015950044290747e+00
6.783832508143143514e+01
1.319692394370251805e+02
6.786902277899785929e+01
9.139688709001905664e+00
2.344811929299281417e+01
-4.740956624307111156e+01
-1.573545668307846483e+02
-1.285894216420473413e+02
-7.685435103548434199e+01
-1.040626603152532397e+02
-4.300337715521840209e+01
5.200855519221534706e+01
-3.176802923853216143e+01
-1.036239931042881324e+02
1.920916185093723882e+01
8.202259016512857670e+01
4.847656896748011945e+01
1.575046877852538216e+02
2.027060009669931446e+02
-3.600294873777266957e+01
-2.047870728563052296e+02
-1.468795693768328476e+02
-1.506895692698398932e+02
-1.588744588974956002e+02
8.917098828395207732e+00
9.377640910348046077e+01
-2.229983865878429938e+01
-8.226280471285222973e+01
-5.793537535872511057e+01
-5.907741913386060162e+01
1.077462752555504721e+00
1.024679820231008875e+02
1.103971981753558396e+02
7.367079116469830069e+01
4.279282480452000215e+01
-2.432476726860167915e+01
-6.513424517156080640e+01
-5.252752429318167060e+01
-8.260129961260453513e+01
-1.253936560176732655e+02
-9.408254990853359345e+01
-5.597043156658178020e+01
-5.175154206881496322e+01
-1.003796703033073712e+01
3.499104353584758798e+01
-1.239747286603241605e+01
-8.252404204155396883e+01
-5.158775860046898742e+01
2.223685712188458652e+01
3.311465553437371057e+01
5.312588499403812392e+01
1.368284738910459168e+02
1.318301033869938408e+02
-6.160679040247526217e+00
-7.751654587617925074e+01
-4.609230500854249613e+01
-8.229889527458604448e+01
-1.608844656100101247e+02
-1.356897811513242686e+02
-5.168542547529197151e+01
-2.333544719827596126e+01
-5.703092728005508150e+01
-9.079239467659078855e+01
-6.106411332938097303e+01
-2.464251621900722711e+01
-7.625736540804157926e+01
-6.150233242719087912e+01
1.507268850922372678e+02
2.643772398573519808e+02
1.088856318359564170e+02
4.369367059359078098e+01
1.769537974309042454e+02
1.345072729918350376e+02
-6.156522724131323798e+01
-6.132759098256379815e+01
-1.386181776536355414e+01
-2.154360195826599238e+02
-4.627818991261764268e+02
-5.062577260311547889e+02
-4.204492694590556994e+02
-2.970199382419715448e+02
-1.515262279256709235e+02
7.287686524888145811e+01
4.766583933668443933e+02
8.269990246049266034e+02
7.960725131112534427e+02
6.191687126655521070e+02
4.807137608212630653e+02
-3.768291808224397244e+01
-8.189270515286797263e+02
-1.057695641008271423e+03
-7.890014668754026843e+02
-6.027056968241793129e+02
-3.163641679402372233e+02
2.212974077287611863e+02
4.431382331078705192e+02
2.814584062100316828e+02
2.364922741362023544e+02
2.627832242047076647e+02
1.664750448579682995e+02
1.467882950504000235e+02
1.566370078484621899e+02
-2.846615491791034458e+00
-1.324760096739358346e+02
-1.233557825215459900e+02
-1.628221709007161735e+02
-1.989884642196398374e+02
-1.209867571103029888e+02
-9.156044375226264265e+01
-1.397361458590940231e+02
-1.021121058101675629e+02
-2.673301550242232949e+01
-2.026421871427111654e+01
3.349512665467067052e-01
5.248878872812785801e+01
3.415129926832503315e+01
1.308238024778004771e+01
1.030046976530999530e+02
1.520243271654713624e+02
3.366412104386826343e+01
-4.138008418296617208e+01
2.044145445141101547e+01
-1.092041043716081461e+01
-1.099617916641320505e+02
-4.744806434982253052e+01
1.226024589009624322e+01
-1.168001188363155336e+02
-2.005128094935755030e+02
-1.435681133631522925e+02
-1.042241511712660298e+02
-3.446000496920261469e+01
6.678132196378146546e+01
4.898134513798942180e+01
4.131925708566016908e+01
1.299500609675929468e+02
8.918567648315344343e+01
-1.212040623298799247e+01
4.594844728657263033e+01
3.844092407574535031e+01
-1.501207458458498252e+02
-2.008744228982604341e+02
-7.385142384204992538e+01
-1.010383561962528276e+01
-1.276842856460019959e+01
-1.924767569356851027e+01
-3.918534978233812183e+01
-3.369336087146023573e+01
-2.758331560563000195e+01
-1.356964755758988161e+01
9.317148380006680952e+01
1.439655915680177145e+02
-3.496028405384272730e-01
-1.253508457529078157e+02
-1.308505715730839825e+02
-1.389050162185675958e+02
-7.652745319329737583e+01
4.844170150625841131e+01
3.459174061840632675e+01
-9.867883087156773314e+00
5.020631210331615080e+01
1.424223724918197576e+01
-6.876663803352757043e+01
3.723176329443972321e+01
1.038485893306187791e+02
-6.297095617085708597e+01
-1.591396861942799887e+02
-7.456822345014623465e+01
-3.781262106404070522e+01
-4.904798556027603951e+01
-7.985413319989618230e+00
1.892989224692317052e+01
8.816162664627821499e+00
-1.340592648281784705e+01
-5.097331623916331012e+01
-2.280400003751808669e+01
6.448805265234582862e+01
1.948774731021357454e+01
-1.367155510094902979e+02
-1.428294669096345331e+02
-9.524064019359101962e+00
3.017373135197741263e+01
2.743232736666232086e+01
1.412459216936586586e+02
1.777978449758789736e+02
-3.546101564818364693e+01
-2.136197036302479830e+02
-1.559852971732974254e+02
-9.100884975606714988e+01
-9.573791345956988152e+01
-9.751758214418959625e+00
6.298626220596570136e+01
-1.116449090219103724e+01
-6.698736466846878557e+01
-3.738910353189806557e+01
-1.583142576550285341e+01
4.773329028241026606e+01
1.290558638401977589e+02
7.614002705080103794e+01
-3.692953632809071962e+01
-8.110714117708772619e+01
-1.132319528351928994e+02
-1.141836791206949329e+02
-1.551765482468748658e+01
7.260322725050612291e+01
6.684102405345267073e+01
1.594483499767209267e+01
-6.466445050465488009e+01
-1.430322459241225772e+02
-1.442541151499382579e+02
-7.311676355021606355e+01
5.909828151503688787e+00
2.915264653236911130e+01
7.163259526689436996e+00
2.179263727263361261e+01
1.262962364317090902e+01
-7.927516482819605415e+01
-4.308947284054455906e+01
1.205326755486056101e+02
7.521622957587652536e+01
-6.389218067230950737e+01
2.555011439029520659e+01
7.097934254314688474e+01
-9.884854012821546121e+01
-1.097341750973518657e+02
4.212864795257946327e+00
-6.811945039132788793e+01
-1.176641743042571591e+02
-3.432407436462219152e+01
-6.850502558757384008e+01
-9.586911573213072302e+01
3.380737384151402125e+00
-5.554296487788771941e+01
-1.639667837840943889e+02
-1.212787991077255612e+01
1.062869011117111455e+02
4.265361256184576177e+00
5.296119646403063541e+01
2.569097909243114941e+02
2.402452387449984315e+02
7.097695850235871262e+01
3.593320815115272637e+01
6.773605945037340348e+01
-4.955537657029064746e+01
-2.665091528799411549e+02
-3.333732918404293173e+02
-2.656414612215091324e+02
-3.441581629485320946e+02
-4.857456277678721221e+02
-3.631308534208718584e+02
-9.221403103028188752e+01
1.234049371170432323e+02
4.517959393236696997e+02
8.410584694070203113e+02
9.344174253590764465e+02
6.960318086392484247e+02
2.560038426630663366e+02
-3.388225069570102619e+02
-8.200039747472538920e+02
-9.308361658625955215e+02
-7.870610584048822602e+02
-5.096655987407089583e+02
-1.139309564812122915e+02
2.058503085124246752e+02
2.939707744912952307e+02
2.555232830691104766e+02
2.246594603065630054e+02
2.324063432858004603e+02
2.316571019536726510e+02
1.651381047551923871e+02
9.300959807143010494e+01
5.885335250130430751e+01
-3.373022873408440603e+01
-1.646119963243236555e+02
-2.041720484477498019e+02
-1.977988992797637025e+02
-2.091942482651342630e+02
-1.733256042606983556e+02
-1.188449125007901586e+02
-9.678230758309535986e+01
-3.115479406775499882e+01
4.741212783634112782e+01
3.407878704739569287e+01
3.028797080746394954e+01
1.279507480378535149e+02
1.752366607389433852e+02
8.840770926955312348e+01
9.030899090570848387e+00
-4.215338242638093647e+00
-5.886307963557563028e+01
-1.463168068928106038e+02
-1.192703285830792765e+02
2.580349999870666267e+00
4.152250548647900530e+01
-1.691941693892871612e+01
-6.211546677027321550e+01
-9.817994018298708170e+01
-1.385012440455642206e+02
-1.129783243946579461e+02
-3.212590216981554647e+01
3.606935687488906694e+01
8.512781094194505727e+01
9.253533164787106102e+01
3.092623039633491189e+01
-3.938583123586988677e+01
-5.878183211868532965e+01
-4.133470638748637782e+01
-2.523777266667977059e+01
-1.978480670400287522e+01
1.227527662375986850e+01
4.913593636661005348e+01
5.732698724046645822e+00
-5.063339575655760427e+01
-2.499228592078129907e+01
-3.961950253808025479e+01
-1.142750591631593977e+02
-8.576081790687058515e+01
-5.047464963100989621e+01
-1.154276424575773916e+02
-6.328542233657832838e+01
7.081720648737962165e+01
2.802212841349663108e+01
2.464543719148565515e+00
1.435078430647898529e+02
1.197945913908122009e+02
-5.724887975843671484e+01
-5.887328351998382914e+01
-2.604047484306359550e+01
-1.134430606329754312e+02
-1.054842965307389591e+02
-3.562097745513939628e+01
-5.240265093542518571e+01
-2.026002171391769835e+01
1.693346001142283441e+01
-7.318766643258000215e+01
-6.141037627039921176e+01
8.647972773788735878e+01
6.084939290881550278e+01
-5.585109601116730005e+01
-1.729107364485204812e+01
1.355411617320127249e+01
-7.662624935137262128e+01
-1.056692644919916688e+02
-2.357235169237263506e+01
6.709513066744223408e+01
7.872570471255664870e+01
-2.703207034788207253e+01
-9.591334926320584486e+01
-1.709061794870913431e+01
-1.228983770828555322e+01
-1.372646352536380050e+02
-8.804190996976099370e+01
9.310123672177829235e+01
5.875232462219665308e+01
-7.403061671567276392e+01
-5.411720970318175006e+00
7.350893172937882980e+01
-5.494088216529285518e+01
-1.461834376690795239e+02
-5.794849218704737837e+01
-1.750194675514471854e+01
-4.776270560637115636e+01
3.031846444143735297e+01
9.070872039900024220e+01
-1.806402734392264620e+00
-4.088814282098594788e+01
5.806251243505180071e+00
-6.426534459093313956e+01
-1.119388226859833679e+02
1.629198606807336347e+01
4.038663685555516025e+01
-9.432066477700743690e+01
-6.437872594903504364e+01
6.738092185150935620e+01
4.945582336345088947e+01
1.261810537590732650e+01
2.972043549578537380e+01
-4.836872461376857757e+01
-1.380406153933692508e+02
-1.496629492839087732e+02
-1.805687128134371164e+02
-1.181297953347069267e+02
8.731696466945459179e+01
1.171690821433607397e+02
-1.004601554115797057e+01
6.708055349730315697e+01
1.803445828520878251e+02
3.120611709162070824e+01
-7.163980868991544071e+01
5.182000532056270004e+01
4.070677439513752205e+01
-1.511865650476500207e+02
-1.891078871683447460e+02
-8.247706614193940311e+01
-4.548663846594661209e+01
-6.864091836001333036e+01
-6.865194479326876831e+01
-2.875368073869784880e+01
-5.507272573119443848e-01
-7.447503413520067284e+01
-1.414106582283156115e+02
-2.217088569614552185e+01
1.056229362423769800e+02
5.216394848580767984e+01
3.779525621109990396e+01
1.485255988603958883e+02
1.406975728541989383e+02
5.331742339706043765e+01
8.509551008060701349e+01
1.139040152734567073e+02
3.164228776924063880e+01
-7.091892416123046416e+01
-2.065487160899450600e+02
-3.543232841688632675e+02
-4.083218469970948945e+02
-4.509735987973152760e+02
-4.733282637889917055e+02
-2.690376867683328328e+02
5.161746723317135377e+01
2.955047192530932989e+02
6.175713295084181027e+02
9.317579739261866507e+02
8.479753046363091471e+02
4.610605334923792498e+02
6.739942686478136125e+01
-4.070659914078374300e+02
-8.681237299565043486e+02
-9.480561751372323442e+02
-6.880520706299499807e+02
-4.046865722739081548e+02
-1.707723225214130025e+02
8.074494445247007945e+01
3.256678679697218968e+02
4.273944686889235527e+02
3.483196653510486271e+02
3.198252301943902012e+02
3.682724090933558614e+02
1.598295943707438767e+02
-1.863637230892266814e+02
-2.157389718907850238e+02
-1.105488904153606740e+02
-1.934286274686923548e+02
-1.842833201107376340e+02
2.714518280261522420e+00
5.189540403916524269e+00
-1.412775921639341732e+02
-1.576158110718559158e+02
-9.578671476746215774e+01
-5.196219479543172781e+01
3.298275063941872531e+00
4.373650167740781569e+01
4.887428197775276573e+01
1.887394287132446991e+01
-1.659396272060187627e+01
2.541161809074099054e+01
7.142352155782903367e+01
2.996430310177829526e+01
3.716406897016862843e+01
7.148370360818593383e+01
-3.315728483685258254e+01
-1.056227862897598868e+02
-3.525640677263481848e+01
-4.150218938276556457e+01
-9.759845704563441871e+01
-8.936731770850190060e+01
-1.322228029891882102e+02
-9.063221159433878427e+01
1.028094599062074934e+02
5.508854751288461671e+01
-1.312295026646387157e+02
-1.124929314053350637e+01
5.511374356723971601e+01
-1.833930347463657995e+02
-1.148727444446834483e+02
2.514258104206863891e+02
2.170178145397663911e+02
-7.623090641064200668e+01
-1.132556851710334342e+02
-3.779392504324685120e+01
-4.109879908467497955e+01
-4.594568720271379192e+00
6.210268470352539794e+01
5.286039224186795593e+01
-5.391590622210489414e+01
-1.915874627957859957e+02
-2.296593221152191404e+02
-1.367509428412680847e+02
2.109530209287282787e+01
1.344343720310740196e+02
4.490639635806901708e+01
-9.077180894590566140e+01
5.014914557691656682e+01
2.023947709967549997e+02
3.174311048169281335e+01
-1.179029587516412931e+02
-7.701844821965946153e+01
-1.094507708528165892e+02
-1.240593064500746863e+02
-3.419337111193745926e+01
7.303985572851654950e+00
1.019418337161112049e+02
8.841989542261411827e+01
-2.603700723144311837e+02
-2.645089756709686526e+02
2.977908685149102439e+02
4.124879381457886325e+02
-4.185174535815376373e+01
-2.607011472962617518e+02
-2.539269676533150459e+02
-1.701164007439898285e+02
3.174390568405512880e+01
2.584050092670157994e+01
1.407121624044890780e+02
4.513765916176020028e+02
-3.030010628687833218e+02
-1.322676578599389131e+03
-2.643932341982972503e+02
1.210667059413649895e+03
5.465533826853281880e+02
-3.875101161069631672e+01
7.807761474163382900e+02
1.935305125459940427e+02
-1.471618703376441545e+03
-1.044806837497651713e+03
3.792032561242577913e+02
3.492099467273258711e+02
-6.133018152460069672e+01
1.220115121203267279e+02
7.053640291321543998e+01
-1.303335263524210461e+02
-7.094635801331135383e+01
9.132962103386859098e-01
1.872367557574390275e+02
3.089791135885531048e+02
-8.600227631441757126e+01
-3.614244225323961928e+02
-2.855374406156879985e+01
1.840639596875852249e+02
1.019841270659950894e+01
-9.465183923639607144e+01
-1.119043245028305194e+02
-1.121419479824668315e+02
-3.275575553649119342e+01
-2.450231002269995528e+01
-4.280529328444839621e+01
2.776710996662280451e+01
-3.295866107519802313e+01
-1.894443625848994941e+02
-1.306222968189566984e+02
7.056397859562395070e+01
1.902567095146656015e+02
1.595429186721128190e+02
-2.950688378689530822e+00
-7.012460941271349668e+01
2.461652113153717991e+01
-1.614877187625460309e+01
-1.337989960898880497e+02
-4.468684092211968562e+01
4.212870541435334815e+01
-4.120833222875353385e+01
-7.178065514580555373e+01
-3.864070317818159594e+01
-3.570705772596441818e+01
-1.603967024126464125e+01
-7.383244372489066620e+01
-1.696504235651674435e+02
-9.131643333450182354e+01
-7.288071698885453031e+00
-5.845605841086197074e+01
-2.331574026653452592e+00
1.048768583517321531e+02
7.353610928269152680e+01
8.771705473486116489e+01
1.163849661551184056e+02
-1.148629150145215050e+00
2.137099511566503551e+01
1.856083235449684423e+02
9.667481298594776717e+01
-5.744837843181149140e+01
-3.664591264678165317e+01
-1.927553646685468891e+02
-4.807242866045945675e+02
-4.789972207759876710e+02
-3.632432170115795316e+02
-3.317661861126950384e+02
-1.389306781689522268e+02
1.524850295868633339e+02
3.505969533796687188e+02
6.282916273552000348e+02
9.037282072073574000e+02
7.990956990547564374e+02
3.581797842632335573e+02
-1.480379101877728942e+02
-6.324892884206603867e+02
-9.750094073779675909e+02
-9.897454350292705385e+02
-6.405195701795154264e+02
-1.312457510754585712e+02
1.867194786520937555e+02
2.483668177075880408e+02
3.148125217642238454e+02
3.690929804464220751e+02
2.458907038633203967e+02
1.533014872238316002e+02
1.915260687887746656e+02
1.065730105522766280e+02
-5.404492747184602308e+01
-8.941379991389325710e+01
-1.316851025525570549e+02
-1.889365753414144251e+02
-1.126298708582148862e+02
-9.510969873112361483e+01
-2.042699575147763085e+02
-1.476974637045056795e+02
-1.081400744779308454e+01
-6.292134898990985192e+01
-8.916028925292710028e+01
4.878364603810011602e+01
8.090551782747192533e+01
8.354020257220582835e+00
3.570845625168547599e+01
6.113377929431480595e+01
1.586191534993205110e+01
4.121368057920034289e+01
9.026191411129684639e+01
5.225298527858325315e+01
2.069406243620844776e+01
6.434965801785562434e+00
-1.115772543870294840e+02
-2.395363627779831006e+02
-1.908964201307873054e+02
-5.464242072028866914e+01
-1.834881011739576095e+01
-2.443281251305437252e+01
3.160256194765540272e+01
3.302435799892698043e+01
-6.989061132205512195e+01
-8.199837401732406761e+01
3.725310363701034078e+01
8.974504721611899072e+01
3.866808924197552244e+01
-9.851307280404988376e+00
-4.463440720494565284e+01
-5.509390081194712252e+01
-2.779970825096064146e+01
-1.513987662468430884e+01
1.586653611294635269e+01
8.324686496885905740e+01
4.449887753168908944e+01
-7.762769068310207388e+01
-9.062108713105678248e+01
-6.438526872949098845e+01
-1.372115766405682962e+02
-1.681011142068787763e+02
-7.684723680344976060e+01
-6.107975500615953734e+00
6.302033881948119642e+00
3.654317481886626240e+01
8.840890511876538937e+01
1.098631312446053983e+02
5.704001471372362886e+01
-1.275298590945683586e+01
-9.465871632559231585e+00
-1.920394254507168696e+01
-1.035687451728437338e+02
-1.107516030834775762e+02
-2.942814464792502704e+01
-1.756074199099913002e+01
-4.006953150573378508e+01
-2.905779774150099115e+01
-4.987979200038756744e+01
-6.801710884628809595e+01
-5.024453204883083401e+01
-5.323903067236786768e+01
2.474284301234245476e+00
1.034661954550184504e+02
4.836716946202426470e+01
-4.181919853410143162e+01
4.244200094744784479e+01
6.231179270366551748e+01
-9.225332521576143563e+01
-1.217041070763706045e+02
-3.876135659375236031e+01
-7.742580862168907174e+01
-1.152808879433475369e+02
-2.085572496265088205e+01
7.282016374125049651e+01
8.845359636228371869e+01
3.573730303832924449e+01
-3.555454043279532073e+01
-2.566633198845780939e+01
-9.661372854882117167e+00
-8.647993179653549589e+01
-1.062202516905939405e+02
-3.744960566423397097e+01
-5.065544355821096190e+01
-8.499433222822796097e+01
-2.163668605770762454e+01
4.673721126331872711e+01
7.684978119150389375e+01
6.018463920743690920e+01
-3.774350745445599387e+01
-6.727646257880351754e+01
8.254582793716039646e+00
-2.398453702944026489e+01
-7.838080504861233067e+01
2.349504464177303475e+01
4.330793419240767150e+01
-8.467513908964136249e+01
-6.638715782290634593e+01
2.244646127583883555e+01
-2.730237670563532149e+01
-5.086383582848729645e+01
-1.606920882845207998e+01
-7.979358427441542290e+01
-1.194006926946185132e+02
-6.141332027882243239e+01
-4.888146576836778223e+01
-2.882042990801945237e+01
5.471333060049553865e+01
6.528760820409942767e+01
4.523982023687938181e+01
8.775308818495661001e+01
7.941214760633924641e+01
3.013490134943557663e+01
3.783011126667194901e+01
2.164712052612500770e+00
-9.585267270645820759e+01
-1.351111740933995122e+02
-1.579888756612560599e+02
-2.011455462920413595e+02
-1.769960111422591638e+02
-1.113969069155013472e+02
-4.882726124640724663e+01
3.713382365914301886e+01
6.856846451637439088e+01
3.141075428150486815e+01
6.163848175341094304e+01
1.148390015300964535e+02
7.956641333145238093e+01
7.196772428324661064e+01
1.372041074085885271e+02
1.207332552682380822e+02
2.564139615761787638e+01
-1.923409542301073571e+01
-4.304065574749955658e+01
-1.297031604053686635e+02
-2.423276518970673123e+02
-3.073931094285939025e+02
-3.332802508299218971e+02
-3.576435396163682299e+02
-3.283878806550191030e+02
-1.879309268741731955e+02
1.185728754285148412e+01
2.591530732046572325e+02
5.756385967187300139e+02
8.023955524496549288e+02
7.843217710862206786e+02
5.559458727749550917e+02
1.089877938562517414e+02
-5.060083455775811103e+02
-9.479137755955183593e+02
-9.995232919777107554e+02
-7.750023910371278362e+02
-3.624186936179721101e+02
1.051078937064590377e+02
3.512232055103524431e+02
3.610734718191677075e+02
3.029765441370023495e+02
1.901190901959046471e+02
1.152839752103533044e+02
1.893762677365083960e+02
2.068973387353308340e+02
7.026916329871056632e+01
-1.326967556808175175e+01
-7.650740035658775184e+01
-2.286528040936480011e+02
-2.527267141082162993e+02
-1.318422647854505385e+02
-1.444154089817537283e+02
-2.045266283907972991e+02
-1.004219022005057980e+02
-1.074436978169527990e+01
-3.809886891167538181e+01
1.737452549212212460e+01
1.322608500200476840e+02
9.854875460109397523e+01
-1.182250195546055238e+01
-4.072403093473884184e+00
7.618439244247426245e+01
7.719541234896243509e+01
1.744065946351494389e+01
5.659761609585494568e+00
1.331470431944319799e+01
-4.924007449236384559e+01
-1.294618472568848802e+02
-1.293997196473091833e+02
-7.235749340767586091e+01
-4.063073069853158614e+01
-7.468592227820288088e+01
-1.148628362469172544e+02
-5.272904402097751131e+01
4.185373776177917193e+01
7.511266118717895068e+00
-3.805139474058687199e+01
7.600305039253007067e+01
1.511996067674504616e+02
2.351899594199228716e+01
-7.208748926588474149e+01
-1.340698271934156338e+01
-1.643861113024194864e+01
-1.312799593710012687e+02
-1.532755373861109547e+02
-3.198355183759802145e+01
7.592095720880381293e+01
6.483101755159613333e+01
-7.558222663919771378e-01
-1.700742557271041733e+00
2.179315588150687333e+01
-6.028169957638611010e+01
-1.623422231493125309e+02
-1.025819433270553276e+02
1.377335801523422276e+01
-1.787595722980568524e+01
-9.055278545331924533e+01
-2.359692779322726608e+01
6.736708958352052434e+01
4.446344840262676712e+01
2.150006491084715421e+01
6.672837042897850779e+01
5.497330838993168101e+01
-3.695960658502374940e+01
-1.041896065353346756e+02
-1.364879602723174514e+02
-1.346019186257886986e+02
-4.914383941806011080e+01
3.816957967772533067e+01
3.595055281457376850e+01
4.505709869610733165e+01
8.859944958909557045e+01
1.041790881065479013e+01
-1.381757812121655320e+02
-1.406935437519642846e+02
-4.723012086262842502e+01
-3.370352211518284946e+01
-4.785460732581208276e+01
3.115344660476427663e+00
4.619652884530117376e+01
2.771659193033638147e+01
-1.383502639891290187e+00
-5.574045128912306524e+00
1.174212029709118710e+01
2.119793884013719776e+01
-2.537232945641618187e+01
-9.444960124273420377e+01
-7.999002228131251968e+01
3.340939668084637049e-01
9.830534359445696424e+00
-4.768853989322716558e+01
-3.368448101299294706e+01
2.121206820940962601e+01
-3.810522235690612547e+01
-1.367258269298845050e+02
-8.884606046573253479e+01
9.232294970066305950e+00
-1.918668779801374669e+01
-5.903571355867030945e+01
2.859002696558457401e+01
1.227734988340611295e+02
1.156962118358646165e+02
6.094195264561335534e+01
-7.864281284101195979e+00
-7.684171429131649234e+01
-1.127581588900583682e+02
-1.346964094439996416e+02
-1.194280670174247518e+02
-5.630684975078125376e+00
8.791206798728882177e+01
1.143402936498043942e+01
-1.087005821033099124e+02
-9.700311894330965856e+01
-3.151078623822548863e+01
-3.444244989588730732e+01
-4.129684185165305621e+01
3.612988186146799308e+01
1.000356715805211820e+02
8.269740691499809060e+00
-1.131478849426310092e+02
-3.401800978081482185e+01
1.100054508491903675e+02
6.544155797285908704e+01
-9.203226892004636284e+00
4.961735001950253121e+01
1.356931303309606918e+01
-1.546515597769592603e+02
-1.699260325961015781e+02
-5.975369645879743530e+01
-3.567487960531049396e+01
-4.337282726910498099e+01
-4.006201792085794722e+01
-8.907805384502367474e+01
-1.019123380909220913e+02
-3.893402832326172813e+01
8.794532758414483453e+00
7.286659941637876159e+01
1.413864606436048632e+02
7.242087834813284530e+01
-6.074989517047775678e+01
-6.382736479858134260e+01
3.928739459427726644e+01
1.249886307325394057e+02
1.550156218791958054e+02
1.464755460265884039e+02
6.647321793269946966e+01
-1.710014878600343877e+02
-4.164066772905123912e+02
-3.881549818529412050e+02
-2.537763396895988990e+02
-2.821340148055360828e+02
-2.396180493285161219e+02
-3.247195233177322393e+01
7.641143261653436980e+01
2.272090929928131970e+02
5.788317316682662295e+02
7.786479435115509204e+02
6.928393602885279279e+02
3.997839227013570849e+02
-2.172892376485971795e+02
-8.061224245273280076e+02
-8.940231736432599519e+02
-7.991849853863304816e+02
-6.620232195336490122e+02
-1.403087829665011554e+02
3.590121726300641285e+02
3.608974725477762604e+02
3.252349675871531076e+02
4.348753196463745780e+02
3.392109580004679970e+02
1.775892679611687015e+02
1.020681869389755718e+02
-5.693658022424547482e+01
-1.569161150466935339e+02
-1.198718640996153226e+02
-1.617850669529870515e+02
-2.030888956217738155e+02
-1.701898324280230383e+02
-2.152666793403423640e+02
-2.304655294582129272e+02
-1.373665066354350017e+02
-6.017878788068480844e+01
5.875728966530791553e+01
1.322145184470007848e+02
7.644749999339946811e+00
-8.476186521038037824e+00
1.966266677448134033e+02
3.117710215138654917e+02
3.144095482575727942e+02
2.019796083395737014e+02
-8.123552813411069451e+01
-1.969265081922665672e+02
-1.527458004395947455e+02
-2.490499646733127008e+02
-1.628000087287439612e+02
5.931390311665163040e+01
-1.958853366329820176e+02
-5.137191004348811703e+02
-3.127854764188707577e+02
-5.647090798086728114e+01
9.402339150178652005e+01
2.604347997455123505e+02
1.073184317850025167e+02
-3.712575677826777820e+01
2.266325000166673931e+02
2.999310166175896484e+02
2.086341565520191921e+02
4.099435849943967014e+02
3.151086706057647007e+02
-1.347630297838914544e+02
-2.303506054175942950e+02
-1.827924002398216317e+02
-1.387745226038018984e+02
-3.472600231480994637e+01
-5.476743874627602509e+02
-1.121506757326954357e+03
-5.608133829890691686e+02
6.500497794877612989e+01
-6.904758208190388302e+01
9.440902993142472610e+01
3.533985201384101629e+02
1.622698396746573053e+02
3.297685037833112460e+02
6.324855457737509141e+02
7.943025947066622621e+02
1.378179405019338446e+03
9.267659989010097661e+02
-9.242349646837598129e+02
-1.022750750954778255e+03
4.731675430463272960e+02
1.407028235384095467e+02
-1.380798729289780567e+03
-1.803652376051906231e+03
-1.491043398359551929e+03
-1.196316206943102088e+03
-1.115209092461635919e+03
6.626487942700805434e+01
3.087930275490000440e+03
2.837774266653423183e+03
-1.979959700865163086e+03
-1.798187838330790555e+03
3.782413325720143803e+03
3.444288223672583626e+03
3.706651114211640561e+02
3.130709358455795154e+03
2.147792968164534159e+03
-6.565800485270158788e+03
-8.207398399882767990e+03
-1.841126302334694174e+03
-3.654670687299895917e+02
-1.137103682683738725e+03
2.159919283013085987e+03
2.868900627107780110e+03
-2.131579831687757860e+02
6.270901743253236873e+02
4.421561532399489806e+03
4.677921007659859242e+03
1.110693227135523102e+03
-2.566673924532982710e+03
-4.326619510768789041e+03
-4.868313702280406687e+03
-3.476539686766599061e+03
2.420228819557280985e+03
8.262056174913263021e+03
5.929098992739477580e+03
-1.216015998856529222e+03
-5.022693511946482431e+03
-6.560726662241574559e+03
-7.718620843737095129e+03
-4.626755960391798908e+03
2.998926989065705584e+03
9.198233211227594438e+03
8.425645445831971301e+03
2.638507724307040917e+03
2.752836332627137494e+02
1.091628667966910598e+03
-3.013624833847575246e+03
-6.303926021118524659e+03
-3.379757875391740640e+02
2.592182320271724620e+03
-4.292622045932386754e+03
-5.509119048645637122e+03
5.105632505839626560e+02
3.112667868668506799e+02
-3.391368085052487231e+02
5.457929610829258309e+03
5.428952681645173470e+03
-1.349403284384318908e+02
1.340473401645932654e+03
2.430788536853991445e+03
-3.550493131440842262e+03
-3.178670069185324792e+03
2.068171331137465586e+03
-3.382226544173614002e+03
-9.472376396768726408e+03
-8.787154758772286414e+02
7.271982385459459692e+03
2.219283529369226471e+03
-7.588509174209268622e+02
4.752337746864540350e+03
3.374733768782171865e+03
-5.134524266382634778e+03
-3.467409688623118200e+03
6.302216796799897566e+03
5.140156687619289187e+03
-5.626674723751785677e+03
-7.296652528336943760e+03
-3.703262439735430007e+02
-7.093122127839075119e+01
-2.488265176864840669e+03
3.684215023217126600e+03
6.903238042503152428e+03
-3.229141726278026454e+03
-9.369208352749816186e+03
-5.795282231887990747e+02
7.257743136776575739e+03
6.645518908773316070e+03
6.415341171166201093e+03
4.087912609107825574e+03
-5.456059194260454206e+03
-1.185541227413553497e+04
-8.245956121083529069e+03
-1.395578310322253174e+03
3.600660076382774150e+03
5.468757099858328729e+03
3.481809297703010543e+03
1.270015894836722509e+03
6.804875069002620194e+02
-1.047464884122908870e+03
-2.566218779915846881e+03
-1.731076895975668322e+03
-1.256429201903467174e+03
-9.673623105805753539e+02
2.070714038851634996e+03
5.757464537964852752e+03
5.535670164019578806e+03
-3.435067250849218112e+02
-7.339807549259995540e+03
-7.051751369092774439e+03
-1.368428410376490319e+03
8.278712612870465364e+02
2.944159460762165509e+03
7.702400966527724449e+03
2.980016113437135573e+03
-8.585123626757500460e+03
-7.052755107777299600e+03
3.038963125896090332e+03
3.331807947610506289e+03
9.958412482543628812e+02
5.397650722515613779e+03
3.777400741865333657e+03
-5.790895003154042570e+03
-6.761491212161346084e+03
4.740859556399936992e+02
1.662102648756446570e+03
-1.270472024070422776e+03
1.205291937197599509e+03
4.151472876428354539e+03
6.664508153903612993e+02
-2.296987298656207713e+03
-4.914476486021278561e+02
-1.486884231288256387e+03
-3.836473538466150330e+03
9.747621040651561088e+02
5.433033895340761774e+03
1.707590900521416870e+03
-6.700926711965507820e+02
-5.688121919365540862e+02
-5.665964709428716560e+03
-5.628591569718892060e+03
4.606292235763568897e+03
7.617593521534485262e+03
2.321114708043633527e+03
1.941875310418522304e+03
-8.875679468360744977e+02
-8.735957887952807141e+03
-5.321044458338354161e+03
3.554024751390882557e+03
1.258742051066265731e+03
-1.829665136061283192e+03
2.574088011440512673e+03
2.791141462882762880e+03
7.166670122237005103e+01
3.248242388178954570e+03
5.003943364158793884e+03
-8.608706502229105126e+02
-8.496829679415528517e+03
-1.077048198301889352e+04
-3.508088358594602596e+03
6.236198326280874426e+03
6.826556409312442156e+03
4.430631461428181865e+03
5.949898806226247871e+03
3.333075582411863138e+02
-9.953975876819649784e+03
-6.733241345280606765e+03
4.160560498006724629e+03
5.209182486353906825e+03
2.283810712390524031e+02
-1.300031598099148596e+03
-2.587809083495982350e+02
-3.220358830899658074e+02
-3.756899706687231628e+03
-4.859294209170538124e+03
2.007664413545167463e+03
4.964200129717971322e+03
-1.451654094826847768e+03
-6.226605858445408330e+02
6.968316608128511689e+03
3.544604470092055180e+03
-4.165744954122291347e+03
-2.878858931431351266e+03
-3.312886886922757412e+01
5.450467703402915731e+02
1.200198530878374640e+03
-2.328057135753188049e+03
-4.654248227932373084e+03
-1.249164817082043783e+03
-2.807159863216924350e+03
-3.724554204711808779e+03
7.914173183291499299e+03
1.253019260393785771e+04
5.306724096181956156e+02
-3.474094583654136841e+03
1.236397560884913901e+03
-3.398471512508933756e+03
-5.087911408529850632e+03
3.135218698104346004e+03
1.415077044873541126e+03
-7.487450764360560242e+03
-6.545254899919823401e+03
-2.454927948437151827e+03
2.524257307663231416e+02
8.486595453071944576e+03
1.372352047082790705e+04
8.252755996173969834e+03
5.148002714305935115e+02
-6.418708997020186871e+03
-1.236416119172338949e+04
-1.030202292816992485e+04
-2.405770720690187318e+03
2.955754428615909546e+03
5.971630157834199053e+03
7.277868574364711094e+03
4.707944000523942123e+03
-4.911849428754762812e+02
-5.570696168265862070e+03
-5.639623646146007559e+03
-1.188752056689142336e+02
1.382280664772006048e+03
-4.435690396640299582e+02
4.687780935741442590e+03
7.049194638529992517e+03
-3.010514212793184015e+03
-7.430691938246181962e+03
-2.379644126100549073e+01
6.929525664866639545e+02
-3.044615693798821212e+03
2.034900699415421059e+03
5.319147147868447973e+03
-2.588834869280167936e+02
-3.096632840898116228e+03
-1.848467646529794592e+03
-1.616325403279374541e+03
5.486504016013298042e+02
2.346806998734020453e+03
6.801121170246768770e+02
1.141445767334801531e+03
2.223412627189085470e+03
-1.031595782115564134e+03
-2.189483876170990243e+03
5.761183028208400856e+02
-2.591977885971987234e+02
-2.414730096689330367e+03
-7.822443862957088641e+02
2.693978479147543794e+02
-1.363229665933720298e+02
1.526843296018910223e+03
2.284218264227079999e+03
4.378125286180252260e+02
-3.336749543452053217e+02
-3.151579093967430936e+02
-1.292443643255543293e+03
-1.323545441523424870e+03
-7.872757600933624644e+01
4.677073186955933011e+02
3.316144909410416375e+01
-5.446447270871946102e+02
-3.086726062427659940e+02
5.758754770532070779e+02
7.034789343670161088e+02
7.821509021152083960e+02
1.548850436333402286e+03
6.737997216678817267e+02
-1.335329931336985510e+03
-1.143996383437243594e+03
-4.084381183226966527e+02
-1.284421140730617253e+03
-7.871848966933292786e+02
9.673397717774452076e+02
2.272778409796806613e+02
-1.076442620901386135e+03
1.936442594705444549e+02
1.252272633530446683e+03
4.590828178619262872e+02
3.436214179718557489e+02
8.645403737201105514e+02
1.517337173593560067e+02
-8.435174560004412569e+02
-7.802598019246215699e+02
-2.365930817350781297e+02
1.505015780124849414e+02
2.301528473831185408e+02
-3.848468091997148832e+01
-2.811826612187172714e+02
-3.100230842331285999e+02
-3.565986854834195583e+02
-3.183809025377743183e+02
-1.446201980406513243e+01
2.914865620851323342e+02
3.574634459252019383e+02
2.346203224736064499e+02
9.678646963774198753e+01
1.360899915619591525e+02
2.374480766469999935e+02
6.918838748000212036e+01
-1.903938073951961769e+02
-1.246374149212201559e+02
3.211687587460410498e+00
-1.856434281541010023e+02
-3.231637497608635385e+02
-1.456229855866625940e+02
-5.190671531876532185e+01
-1.136480476153273997e+02
-2.141753240189699170e+01
7.265893988963323125e+01
3.883873846189409562e-01
-5.460023361162065214e+00
1.846772799761317430e+01
-6.220024349323709600e+01
2.329407185748690878e+01
2.440982441786957509e+02
1.965915342550912044e+02
1.095385048690193130e+01
-1.952450417338162936e-01
-1.448173210773556008e+01
-1.359462034538865396e+02
-1.686539950707194464e+02
-1.156814800504087373e+02
-8.959320497873682143e+01
-7.725125510477427326e+01
-7.474107349647636056e+01
-4.982921393086552087e+01
2.388274941225204628e+01
3.805897335843799567e+01
-4.005635437882443739e+01
-9.639574479508509341e+01
-6.727702404094574717e+01
4.544716638195666292e+01
1.548706507113827797e+02
1.481893221086746735e+02
1.198934923769735832e+02
1.175459985316183804e+02
-5.620015664057165594e+01
-2.746194280236928194e+02
-1.862838834157489600e+02
-1.347626885407787256e+01
-7.565697064728938415e+01
-9.722409635908255154e+01
4.321195092973397323e+01
1.866852877939543021e+01
-1.217241155049464965e+02
-7.307180635546239955e+01
4.603554921880810014e+01
2.854309061110160073e+01
-8.663458852568592050e+00
4.299582127221533057e+01
8.603472999882069416e+01
3.833677855043366378e+01
-2.505055710868837693e+01
-1.514518453020336608e+01
-9.135481462989698542e+00
-8.570172517737192663e+01
-1.198592022068947642e+02
-4.916638365033382740e+01
-2.592448371569143717e+01
-6.237812460085294219e+01
-2.035750998848482141e+01
3.594467813990134175e+01
2.340729935247455984e+00
-2.206782250362077136e+01
1.360464285100576376e+00
-1.482755830832986632e+01
-4.405869497987886518e+01
-4.204160853696866695e+01
-4.656708627251759935e+01
-2.585051159199757365e+01
1.903353189670749046e+01
-1.513533460561605892e+01
-6.318217613129051813e+01
-1.284536609252882045e-01
4.026832704965491416e+01
-1.220330165955283164e+01
3.922121521964974278e+01
1.430887082992524597e+02
3.405345044320346659e+01
-1.494394466383776034e+02
-1.481190131652417108e+02
-1.239276720368962970e+02
-1.783292617506165811e+02
-8.415787800604290680e+01
9.621584833636853773e+01
8.387923343599524628e+01
-8.079850084567283375e+00
-1.005569112502602991e+01
-4.627155202951056623e+01
-6.892184640814414820e+01
5.517488194624283437e+01
1.088655015780869348e+02
3.208951209859794318e+00
-1.417890678700733886e+01
9.789369679284209980e+00
-8.856563824815799535e+01
-8.522227019912392620e+01
7.353175375566466698e+01
6.899892546064265275e+01
-7.642260214535195928e+01
-1.080669601031933240e+02
-8.254658567220522514e+01
-8.719082986500581001e+01
-6.664306725748835447e+01
-5.772621572977442383e+01
-5.878224814119440822e+01
-3.961014181717379756e+01
-9.724529788603354064e+01
-1.196064073088748643e+02
9.377989886392572316e+01
2.573781653176610575e+02
1.167003649941511156e+02
2.285400200880871324e+01
1.317385280962659806e+02
9.618654828406340584e+01
-5.852699446365033253e+01
-2.576799155208036041e+00
1.094910041909660094e+02
-4.290183523428746071e+01
-3.088801952098394281e+02
-3.898871204169729481e+02
-3.350360604886750480e+02
-3.567134139725971522e+02
-3.985579923329938765e+02
-2.176432922754399328e+02
1.400641139143371561e+02
4.158356448142291697e+02
6.256392488571974582e+02
8.511580021936331377e+02
8.295112822686027130e+02
3.796382989159710064e+02
-2.327686197573679010e+02
-7.083302364663735489e+02
-9.379702877195888959e+02
-8.538189170352083011e+02
-5.344015237187242064e+02
-1.883472975969891365e+02
1.083362892492262262e+02
3.131463814418200400e+02
3.173862117323919847e+02
2.301591988340117609e+02
2.682402421005387509e+02
3.178823873462030178e+02
1.783668184658808400e+02
-4.730365710360707965e+00
-5.765964580354197722e+01
-8.131467600116944539e+01
-1.418970252982373381e+02
-1.617314878895153356e+02
-1.442938549244460944e+02
-1.358778950790848512e+02
-1.455424906086082331e+02
-1.868701117331887929e+02
-1.686047714363774901e+02
2.834682187563977607e+00
1.457525928167104610e+02
1.033237636283995755e+02
6.199723187455261098e+01
1.157298029390569098e+02
7.654520918896344028e+01
-6.631073785634711726e+01
-1.233290760090793867e+02
-5.358532874528530954e+01
3.742075513632822492e+01
3.316062061489212454e+01
-3.930831624374959432e+01
2.432866107574646719e+00
7.074097117314241245e+01
-9.770054456368700357e+01
-2.457749646708240334e+02
-3.884336343591557750e+01
1.280822401844936849e+02
-4.233600761749569585e+01
-1.216479040690823865e+02
1.014941820637077186e+01
-2.999466239944296220e+01
-1.454525168852674710e+02
-2.620372479626113460e+01
1.264989822571311464e+02
8.775333646859881753e+01
-1.231790207045832375e+01
-6.529537884146037641e+01
-5.704402342005698756e+01
1.877472607519936076e+01
6.778788300830403557e+01
3.665041261365616521e+01
-4.074760405041995881e+00
-5.605198855706743899e+01
-1.453077793622950367e+02
-1.630747752171685079e+02
-4.109910267508982429e+01
7.558028723237541158e+01
3.038929632954877746e+01
-8.197160623864553486e+01
-8.459778364317796218e+01
-4.426538645965104024e+01
-5.643809393654370155e+01
1.263019597771046065e+01
1.332792081936157444e+02
6.385320939477132640e+01
-7.343539303750789315e+01
-2.104628099024727206e+01
4.144547838572559328e+01
-2.610612736611021489e+01
-9.293838289287744914e+00
5.156114510472923484e+01
-6.760947053766862780e+01
-1.925674842010102168e+02
-1.161057183100519694e+02
-1.719046656106525006e+01
-3.163010308597779030e+01
-4.543025398417640304e+01
-9.247778900078643005e+00
5.058980364374246363e+00
-1.455597363192555349e+01
9.279940585252468566e+00
9.379385328467570559e+01
1.062936714434089822e+02
-1.276509419261719813e+01
-1.015509740178763138e+02
-7.252850931706367987e+01
-3.284454106401600626e+01
-1.230242862080335797e+01
3.142199367648555963e+01
3.080387073492038397e+01
-6.293803236314471405e+01
-1.587213095244035799e+02
-1.598287482749899766e+02
-7.916012468558594151e+01
5.731969927903023176e+00
6.594550341166416274e+01
9.959390234214845350e+01
3.795431955460470164e+01
-9.313226758376673331e+01
-1.055167923766826874e+02
-1.410016531055013900e+00
3.587917237440949236e+01
5.237714621637019263e+01
1.269323781518550618e+02
7.548282943428277747e+01
-1.160826882346093214e+02
-1.761581188137494109e+02
-9.457696184736107625e+01
-7.624421382575786765e+01
-8.084236998947483244e+01
-6.909971497829090481e-01
5.191173894789366017e+01
-3.767462039171398658e+00
-4.632854327021816943e+01
-5.765594092425029515e+00
6.643126105750052801e+00
-6.105501145688620568e+01
-9.232946967178973807e+01
-4.987028264562987090e+01
-2.027329426525565736e+01
1.990270017571072003e+01
1.114804648034167371e+02
1.402068817207337474e+02
6.131837155644106474e+01
-2.505892890837133180e+01
-8.789128329764714920e+01
-1.250979120574040024e+02
-1.108033256178442372e+02
-9.136027959151888922e+01
-6.368259016745059853e+01
8.627055808258013769e+00
1.340667385750130336e+01
-5.405838570088810968e+01
-2.362396296646758742e+01
1.187690702947783095e+01
-9.970708701920872841e+01
-1.455855490070750307e+02
-3.314823502284396994e+01
2.201200978095670280e+00
-1.839027626638524637e+01
7.372333788005320798e+01
1.531449397890897899e+02
1.353457684685963329e+02
1.302530823843909218e+02
1.205679998892403688e+02
6.834142686879270912e+01
1.568026366707097097e+01
-9.310187104920751722e+01
-2.391113095201127123e+02
-2.950390138626610792e+02
-3.442390330551822331e+02
-4.624143623995862526e+02
-4.584167518888014570e+02
-2.771960859382505191e+02
-4.103142668429015316e+01
3.187411577247633545e+02
7.745885704431551630e+02
9.806266422212434009e+02
8.050640918707363198e+02
4.331722743389058792e+02
-8.337562879025068696e+01
-6.667751147136308418e+02
-9.573165052091997040e+02
-8.256308373225970172e+02
-5.793785923345529909e+02
-3.480232574944151338e+02
-5.648576276427892395e+00
2.939624248174674221e+02
3.410915162674289718e+02
3.284462879152474670e+02
3.812880499135258106e+02
2.808762954157114677e+02
5.239277409240574457e+01
-4.614256869788417248e+01
-6.468117678471875820e+01
-1.053791567434122385e+02
-5.924620650014163914e+01
-3.599649167848479436e+00
-9.713024436195927080e+01
-1.949885842543049250e+02
-1.849050678304251392e+02
-1.725909294701735917e+02
-1.383484183655374409e+02
-2.490301481176897980e+01
5.686833634541542182e+01
4.950123433512012383e+01
8.788351799648037144e+00
-6.626824073599458131e+00
5.350265386223391317e+01
1.080254333906711395e+02
5.381964562340649394e+01
1.943145825988688102e+01
5.436914344925246212e+01
-1.839035384281514141e+01
-1.226484600391139850e+02
-6.549582847396028740e+01
-6.310170173132409133e+00
-6.425837810239879389e+01
-8.645175326067996480e+01
-7.974123371731712950e+01
-1.042042565670877252e+02
-5.817598537521487145e+01
-2.145424976371444359e+00
-2.534353038485729215e+01
1.706685678998524835e+01
8.543977834650056025e+01
-6.189931419633758480e-01
-7.072064688681112443e+01
1.369712314096250338e+01
4.037301261575431965e+01
-2.238335207954483863e+01
-8.935322936608056210e+00
2.130374527625891190e+01
-1.141585770865613725e+01
-4.894885192147371811e+01
-8.419384902025896622e+01
-8.122968765445895656e+01
-2.367559855002409464e+01
-4.935399431349812005e+01
-1.083016424797014565e+02
-1.085757004475068044e+01
6.974842016665465394e+01
-3.135773224397901870e+01
-5.063657899986352362e+01
5.464090076672458451e+01
-1.372435548555319684e+00
-8.966137663745207931e+01
3.558833222901251503e+01
1.144522840378834303e+02
-1.250736176084907214e+01
-7.041400941572825900e+01
-3.929464457812085243e+01
-1.241257063230617916e+02
-1.852250817950045416e+02
-6.332202528494150329e+01
5.835171509544949942e+01
6.403784835514852603e+01
5.061496984916888664e+01
4.209425996503976819e+01
1.177247516172400665e+01
-2.730824983451883625e+01
-7.718151000714443910e+01
-1.006543781352973497e+02
-7.423106500502544236e+01
-7.391668846611958088e+01
-7.999792142553718577e+01
1.060241890647823126e+01
1.135490649237358980e+02
1.058308051054685990e+02
3.945344773577640751e+01
-4.331601777020019028e+01
-1.199228312237385410e+02
-1.051780263403412050e+02
-5.758975979427431469e+01
-6.009410897407420293e+01
9.342692773486042768e+00
1.073112004839767195e+02
8.844583330290557655e+00
-1.334928204019543614e+02
-7.347400566529010746e+01
-7.033848263755981378e+00
-7.179925858617409062e+01
-6.028602310185361546e+01
4.513668606486618273e+01
7.448129325843683546e+01
2.644624230627747252e+01
-4.670465666720176756e+01
-8.237515754383974809e+01
-1.816842058918539493e+01
1.349458948989944318e+01
-3.380944127348485040e+01
4.490513193952074289e+01
1.583400407029156156e+02
2.104748998725983000e+01
-1.878564969860609608e+02
-2.008265111703712762e+02
-1.613033103205127645e+02
-1.580267413537119126e+02
-8.239037148394271526e+01
2.681044358774698821e+01
1.081157004244296047e+02
1.422649571793401719e+02
6.022280184954260562e+01
-1.075768360828951842e+01
6.947321483021440258e+01
7.555472179847923542e+01
-7.273429861601421464e+01
-8.405890603811124606e+01
2.766195705608183175e+00
-7.293988720560560068e+01
-1.500361722430145619e+02
-6.018258689123089766e+01
-2.749407399712811895e+00
-3.366706858487418685e+01
-1.852116104525804730e+01
-5.824770553257010874e+00
-5.392345971629869439e+01
-9.377922662863959147e+01
-1.123540226945424934e+02
-1.034278511877440536e+02
-3.624551984654677739e+01
3.337856349675787726e+01
7.507757132177562198e+01
1.165372456588627017e+02
1.179960719547279098e+02
8.963467671551984495e+01
1.120704334188603184e+02
1.214765258531112408e+02
3.017499246176285865e+01
-7.703833007908026786e+01
-1.439163537134795945e+02
-2.186392773206080165e+02
-2.665264683662780385e+02
-2.449603230453820686e+02
-2.290693641350476355e+02
-2.615432933220898803e+02
-2.847101773427646663e+02
-2.246899645963045771e+02
2.229295014698351451e-02
3.914125692733206279e+02
7.577211017437500686e+02
8.881524608218488765e+02
7.459126555857760650e+02
3.463696127444351305e+02
-2.685405230036721491e+02
-8.244296979552884750e+02
-9.987709464944163074e+02
-8.378673474092510105e+02
-5.643724767883742288e+02
-2.014816248253603703e+02
1.843095788581939587e+02
3.603856252873445101e+02
3.471490971675765422e+02
3.458130878438760192e+02
3.139453615101805894e+02
1.960895146372435534e+02
1.232758394389928753e+02
7.150936667942221447e+01
-4.644666562675921284e+01
-1.102659455124870505e+02
-1.144099862095031597e+02
-1.882438393654157380e+02
-2.255709866807303285e+02
-1.667861368447040604e+02
-1.791878404109030498e+02
-1.908964266567748496e+02
-5.630278161562696226e+01
2.887884432576751337e+01
-1.798206416256569184e-01
6.161576744146994145e+01
1.329699368121099212e+02
7.144910754999530411e+01
5.179860379328699338e+01
9.973071893213943895e+01
4.845278299839911540e+01
-2.196878501376646753e+01
-3.862582767760769542e+01
-9.880125150160023395e+01
-1.245704750628548112e+02
-5.127764843790939153e+01
-2.915359071147263492e+01
-4.133652221010127903e+01
1.230940737015886555e+01
-2.160109475081778641e+00
-1.094566371511834433e+02
-1.254349875801379000e+02
-5.863821014469121451e+01
-1.633916879451672344e+01
1.681300841419368552e+01
3.336122915267489475e+01
2.921446808236001758e+01
2.987064666970039184e+01
-2.371031327545301082e+01
-8.026792299234347183e+01
-6.731430370693100684e+00
5.596471815149906348e+01
-1.673349999111050224e+01
-2.882324347041253887e+01
3.990159344888050441e+01
-7.878866444253556978e+00
-7.706571276212203259e+01
-4.281047703710646601e+01
-5.358498884822759578e+01
-1.165582086955408982e+02
-9.872649043975826544e+01
-5.461514312517222436e+01
-2.343126105952087102e+01
3.343596900258816618e+01
3.967438628872336892e+01
-3.830623836869040844e+00
-8.341199667166097953e+00
-2.850562948896684645e+01
-4.316564338597636663e+01
5.143974235730613032e+01
9.373575507256785500e+01
-1.565565776707911994e+01
-5.204678708636092210e+01
-2.053669528931281718e+01
-1.168133389601690340e+02
-1.643927268535219639e+02
-1.809627096102354571e+01
4.899904408809898371e+01
-4.167760375308974830e+01
-5.662567532413009985e+01
-9.479508851029766703e+00
-2.596813084167276386e+01
-2.464629399746528193e+01
2.368209917708515988e+01
3.431142263953083926e+01
1.431950277426737728e+01
-2.293145037659716579e+01
-7.754564679029243734e+01
-6.200706908295566677e+01
1.695574162793910133e+01
2.024305799835191877e+01
-3.871141886575890823e+01
-4.016254527583165412e+01
-1.679393551572050214e+01
-4.132327357843450955e+01
-5.581826662462029276e+01
-1.140704512852232710e+01
1.745139270954284427e+01
-3.918871139017497995e+01
-1.141468625033609356e+02
-9.654022770029339995e+01
-2.112571567222229874e+01
8.056581738572248241e+00
2.457269440009173067e+01
6.994701442886821496e+01
4.701981732171138617e+01
-3.339782079115425972e+01
-2.629392094829862714e+01
1.899625321823049262e+01
-1.280466558033587887e+01
-2.556776729135896531e+01
1.605521856788776347e+00
-6.837665281191551969e+01
-1.424930010889513028e+02
-7.923470129118970817e+01
-4.871812952362296301e+01
-1.230751424091540969e+02
-9.732044001493730434e+01
1.151094533106757467e+00
-3.834835533446430134e-01
1.338200460429485261e+01
1.175642767625805902e+02
1.288073044217044867e+02
4.819481325065984123e+01
3.099763724992938663e+01
1.980407148798150985e+01
-3.325506888630317803e+01
-3.027636573194677183e+01
-3.151347692375808052e+01
-1.265304321917828645e+02
-1.753703963846718636e+02
-1.192408116424510638e+02
-9.381083927398931621e+01
-8.189837553040908347e+01
-8.426977143943599202e+00
-4.624946945370808749e+00
-1.043420118393907643e+02
-1.083199899779514368e+02
2.449666011322946702e+00
7.040148288884813610e+01
1.231145252340722180e+02
2.091252262704406917e+02
2.036597232787179337e+02
1.163850857674455597e+02
9.067797923148052064e+01
6.619966807251981322e+01
-4.855714271991169539e+01
-1.588171186329338695e+02
-2.472301876633021323e+02
-3.694334499648392125e+02
-4.213325265957250849e+02
-3.574074485076356495e+02
-2.940212761762905984e+02
-2.169093421217080788e+02
-4.033687946390109857e+01
2.065115533679597775e+02
5.101226696669428975e+02
8.022460744464065101e+02
8.709749376347223233e+02
6.435415568353595290e+02
1.822394518982312377e+02
-4.534627140745825500e+02
-9.517342853228984723e+02
-9.830128571892751097e+02
-7.332478840042099364e+02
-4.407622729141639866e+02
-2.048632844382686002e+01
3.258336621004395397e+02
2.809874906182244558e+02
1.543499542729394989e+02
2.613685990545329787e+02
3.153723480279923024e+02
2.110808468508264468e+02
2.088116385430466551e+02
2.068876000312116901e+02
-1.386770033785796130e+01
-2.515866647236539393e+02
-3.042067629274259843e+02
-2.679672821008322785e+02
-2.234798234687220315e+02
-1.454148505331796173e+02
-3.042819437441833585e+01
6.343807247310149933e+01
4.670978056800420575e+01
-4.401889929795912337e+01
-7.435170133677173965e+01
-6.724965650109140824e+01
-8.643194928600205174e+01
-3.406413673367529071e+01
9.523669670978281943e+01
1.557726523268243568e+02
1.500723089126664149e+02
1.388997710291700969e+02
6.846965961045150095e+01
-3.134301157972338459e+01
-7.356212273441128957e+01
-1.105216535250408754e+02
-1.633516054455220115e+02
-1.598519610287007993e+02
-1.464885380318284547e+02
-1.712187459095203792e+02
-1.335770543413590019e+02
-2.325426393323196095e+01
5.589548441879689733e+01
1.172544490983549821e+02
1.684236532699678435e+02
1.109966611670751320e+02
-4.278318857404332931e+00
-3.628187062764413895e+01
-3.845111638744753435e+01
-6.669714098070667774e+01
-1.922253387829162463e+01
4.886401901817475135e+01
-2.945666587320658181e+01
-1.437421656228527240e+02
-1.241719989855350690e+02
-7.639472981148915665e+01
-7.661666804231589367e+01
-2.471685251379770420e+01
4.690671323549307203e+01
2.883439919907654314e+01
-2.655927773387378110e+01
-3.588095276293687164e+01
5.746767448713995918e+00
6.065419332721349122e+01
3.933678665724534795e+01
-4.179919527499237120e+01
-4.156794735890670722e+01
-1.090891403061102594e+01
-7.412076080961318780e+01
-9.496927639365223683e+01
-2.358863633011289096e+00
1.111516908180052354e+01
-6.117597634437491649e+01
-4.632378349770190340e+01
1.688138542532886177e+01
2.015500307864242657e+01
-2.834657669637968169e+01
-9.585007309195150071e+01
-1.000769269167197990e+02
-3.189031329395319148e+01
-2.376045945620244737e+01
-1.423025662524174706e+01
1.064126833056919992e+02
1.132631909869012645e+02
-5.384518577253331273e+01
-8.448016437417390989e+01
-5.220503643181043429e+00
-3.364776712752930621e+01
-1.993578745315300438e+01
5.032678782693703567e+01
-3.846064026492318533e+01
-1.177773737996633656e+02
-6.636284811751757218e+01
-1.328007457372451086e+02
-1.927726323892275104e+02
-1.063207904252347902e+01
8.135984668535866149e+01
-1.359337068253364578e+01
8.463284090591442066e+01
2.190608276298214605e+02
5.706521565476079871e+01
-8.838759877229199446e+01
-4.260721797034771896e+01
-9.443629250214888771e+01
-1.691419380663034531e+02
-5.601127369676456169e+01
3.208359538854574566e+01
-4.552389206731415783e+00
4.129375998358156608e+00
6.629825964794566318e+00
-6.872254118465829720e+01
-7.906432878947748577e+01
-2.817253904047672819e+01
-4.038707517961508131e+01
-6.264069264143087423e+01
-3.202322691560910073e+01
-6.374007211410116724e+00
5.701674007107232711e+00
3.190570700309489638e+01
3.694190334083840810e+01
6.551347500674541635e+00
-1.413112055085450436e+01
-1.745245193488063151e+01
-3.693700230504541082e+01
-4.895563107186075058e+01
-1.145007088631934522e+01
1.193252866004778667e+01
-4.094335350874301582e+01
-7.646219580415407790e+01
-3.113123400536031582e+01
-1.323956194815749754e+01
-6.102012074946966891e+01
-6.222840475329627452e+01
-8.609773322607324531e+00
-1.800450526374505245e+01
-9.826389225535447736e+01
-1.225560913184368417e+02
-4.209726775333997040e+01
2.874824583970377390e+01
1.658029911292041447e+01
2.042781808175626423e+01
8.236792435506450261e+01
7.913500284033482046e+01
4.857268983514110516e+00
1.843217533664617847e+01
1.315660059862187552e+02
1.744786682022598256e+02
6.245743527191329747e+01
-1.012964387320761546e+02
-2.059346119046799117e+02
-3.155950584132881431e+02
-4.706039076355634165e+02
-4.714171890132343492e+02
-2.686133399118357374e+02
-1.373829149740201103e+02
-5.195886268836443378e+01
2.924284866530106228e+02
7.046887661005321206e+02
8.089266802889408154e+02
7.330524517235010080e+02
5.468627115475854907e+02
-8.694491749311605844e+00
-7.066782630521154260e+02
-9.935081524978418201e+02
-8.928551534237318492e+02
-6.766153833886584152e+02
-2.928176220628380406e+02
1.743210736219588171e+02
3.750290247096037319e+02
2.963415007297438137e+02
2.332899312291722254e+02
2.613288359891972732e+02
2.510005862162878998e+02
1.802488210463454834e+02
1.198529130856625216e+02
5.565066606929735826e+01
-7.408789351118856814e+01
-2.096964567614654698e+02
-2.326376307537198613e+02
-1.806152727168971808e+02
-1.702817517574146962e+02
-1.781576932887491012e+02
-1.367038902787724624e+02
-8.480254318470800001e+01
-4.502615833366902365e+01
1.962376429719941484e+01
7.234080626255639856e+01
7.179789014336597575e+01
8.110576836843576132e+01
1.091369611382777691e+02
7.875137770740926157e+01
3.140201223719830992e+01
3.690536119316993791e+01
5.367318279470730147e+00
-9.708782214383077758e+01
-1.368857730043434344e+02
-9.221338447346413147e+01
-6.402992865810283263e+01
-5.581139836690410050e+01
-4.821765825357066149e+01
-6.213471713117598227e+01
-6.538199439697064008e+01
-5.552550220445678519e+01
-5.406727163712564277e+01
1.216555309461233136e+01
1.160347363250612034e+02
9.577606935487395390e+01
-1.138394170516932036e-01
-2.174197088908545794e+01
-4.072868982572721563e+01
-1.051332581301063556e+02
-9.487800749711144022e+01
-2.117663958735763785e+01
1.166796296202760885e+01
1.081257136236385463e+01
-5.797153900353553269e+00
-1.939798026243899187e+01
9.664495946428026230e+00
1.016838070544742578e+01
-5.783002706250837832e+01
-8.043932171745626647e+01
-5.462947219605407412e+01
-7.373316109728266099e+01
-7.322318176948716939e+01
-1.589499664272384649e+00
4.269322358327437428e+01
2.281112042345503355e+01
-1.615905887345210346e+01
-3.707852579281192362e+01
-9.924719595329289490e+00
4.380673089803600817e+00
-3.997945618967191450e+01
-3.079730296506621201e+01
2.098665638937855604e+01
-3.333828735603304949e+01
-8.254325944410386739e+01
8.402715945836970235e+00
3.976095722268708244e+01
-6.618585324823655469e+01
-9.373380244654813964e+01
-3.971641484418137225e+01
-4.654462501812388098e+01
-3.857353839214745506e+01
3.756493460515731897e+01
5.673655779842463431e+01
-1.548870928992898399e+01
-8.856087387292042479e+01
-9.822648915382154655e+01
-3.608731378078992691e+01
3.870043410055650668e+01
6.802605572234750753e+01
6.604137229389219499e+01
2.355744294294255781e+01
-7.257528872901852424e+01
-1.294074030635607073e+02
-9.308550677590987732e+01
-4.600962560383027977e+01
-2.600149480753702136e+01
-5.158547164541964491e+00
-2.712844576728095802e+01
-9.892762550911919561e+01
-9.179737998617366657e+01
1.987397101104657438e+01
6.925875190667869674e+01
3.707254588847424515e+01
8.976141061033554536e+01
1.455374255539593662e+02
-3.169958157383799602e+00
-1.555923786738021306e+02
-7.334205523824988404e+01
-3.419372442366022113e+01
-1.924792184970036715e+02
-1.783361746835872168e+02
4.916760007910593089e+01
8.098575891872316390e+01
-4.759005545249079461e+01
-2.616645292507514853e+01
2.725707452482792803e+01
-5.931211564248567925e+01
-1.200906702807632058e+02
-4.797639075854262103e+01
6.781003006431623703e+01
1.315101509220417313e+02
7.174624364137369525e+01
-2.756890186278889487e+01
-8.784672316007942072e-01
4.344439772633164409e+01
-4.154122021108578622e+01
-7.532945590729545415e+01
8.238491722674112339e+00
-4.144536415847376531e+01
-2.167285171706482174e+02
-2.488952410284755388e+02
-1.371774585494707139e+02
-4.126361046039009750e+01
1.485233595165482612e+01
4.715084915948536093e+01
8.103819371646358150e+01
1.184834839666789890e+02
5.660570450323591274e+01
-5.350545191548076929e+01
-8.272910934910388647e+00
8.932319242814473625e+01
4.134032327172292298e+01
2.534695772773877209e+01
1.437474964169773557e+02
1.437435501343757380e+02
-2.316492780621040382e+01
-1.802306311545913786e+02
-3.144956544479236982e+02
-3.968170091849548271e+02
-3.645477999547559307e+02
-3.180194638975895600e+02
-2.303597750470083270e+02
-1.785187656121775035e+01
1.239220149157693527e+02
2.123523240043180351e+02
5.306958509665728343e+02
8.256200822082494142e+02
7.067640071101598096e+02
3.893986801884561828e+02
-7.454397295258551992e+00
-6.155690219099989235e+02
-1.031898535431526625e+03
-9.144497143340961429e+02
-6.093690113948312046e+02
-2.693611336295147680e+02
1.876603567749880597e+02
4.039843166321238641e+02
2.757003121358910107e+02
2.385475750072838821e+02
3.010308220305198006e+02
2.153884133322605408e+02
1.541774591343398697e+02
1.789311094875080244e+02
5.770521969765893289e+01
-1.516437465343958593e+02
-2.518562972895131793e+02
-2.530537046762875661e+02
-2.144293562571339464e+02
-1.811448745344891051e+02
-1.384239480895868724e+02
-2.523133988489205848e+01
3.477279776588922289e+01
-2.817248379770427391e+01
-1.359056189064304476e+01
6.067726542764927444e+01
7.402522952554974722e+00
-1.831251669560807827e+01
7.804975680369338420e+01
7.338841988019808582e+01
-4.671236005716473016e+00
2.814271103395029172e+00
-9.247598919272430606e+00
-4.005423106018784551e+01
1.497979610573224463e+01
2.608830685367646041e+01
-4.252085562163856025e+01
-6.555109975898446351e+01
-1.057308671653777310e+02
-1.671852689835895092e+02
-1.008708677709952610e+02
8.230486465775925353e+00
2.075613053731475688e+01
-1.359092589024527342e+00
-3.755271584131519091e+01
-7.931539732962409062e+01
-5.128453644198715722e+01
-1.523085541573507840e+00
4.714656545232438134e+01
1.364226479025869025e+02
1.153940268553405559e+02
-4.065479721004752633e+01
-7.340355934031697416e+01
-1.832137759986914460e+01
-8.283809977277729786e+01
-1.134676404362352002e+02
-1.440540874492719325e+01
-1.857401335438478185e+00
-8.107005980406613332e+01
-8.001765763290643463e+01
-2.090588427694040163e+01
1.189176202101333857e+01
-7.146839601225533301e+00
-4.632558401399106174e+01
-1.752915757209555281e+01
1.255262076986522857e+01
-5.742871023431396793e+01
-6.175659349333210457e+01
5.241884566356917219e+01
5.516858010873217211e+01
-1.524968059236367068e+01
2.678528345950791234e+01
4.115563271281137503e+01
-5.160656127265451687e+01
-8.102008678471737824e+01
-7.007967300865816185e+01
-1.129769141779977275e+02
-1.034621675754402474e+02
-3.025129902275542193e+01
-1.036755747586557064e+01
-1.602717624952000719e+01
2.208386439890746189e+01
6.026989363153786172e+01
3.589236617409678587e+01
-2.373809096606787250e+01
-2.071133475928597889e+01
1.419548401807255189e+01
-5.109533941191891415e+01
-1.121436692498855905e+02
-2.359585450755006875e+01
2.711188877584110912e+01
-5.177363407375659676e+01
-4.747543010402463182e+01
1.026428169869432594e+01
-4.778922507258425867e+01
-8.586779666111559095e+01
-2.771962183408719227e+01
-1.092895427588661050e+01
-1.143794606835772498e+00
3.837297210676949533e+01
9.436561406936050389e-03
-3.508988147536135926e+01
1.486121551642909822e+01
9.462436009119059577e-01
-5.305565924289402346e+01
-1.467301694895849451e+01
-1.777987537767823767e+01
-1.032778268935794870e+02
-8.358425211623642781e+01
-1.303396289804502928e+01
-2.039597225138675896e+01
2.032266779139491675e+01
9.996976879502631164e+01
3.487052057516867620e+01
-8.544007499848171960e+01
-1.070997722601104272e+02
-1.234986824904858906e+02
-1.489576297116012427e+02
-6.270527438633857287e+01
5.539778104983120954e+01
8.537886447181853100e+01
9.923982613564105293e+01
9.860382183791207922e+01
3.528149265181628635e+00
-6.243337894472308136e+01
-1.268732570944322191e+01
-2.395570918607006661e+01
-1.012000118065842429e+02
-3.661943989936764865e+01
4.240941036111369300e+01
-8.414376273929177330e+01
-1.815536770285336274e+02
-7.667545529154844530e+01
-4.601734157879675990e+01
-1.407942215115381828e+02
-8.921147208669253814e+01
4.080769535507731405e+01
3.809248117510552589e+01
1.996823728205911763e+01
7.343271384388579293e+01
9.594984301463414056e+01
1.265218968788144878e+02
1.918702808358322898e+02
1.538367436131754289e+02
5.265474042928897092e+01
2.329716506883304561e+01
-6.291743540551146907e+01
-2.902550150936264686e+02
-4.254920133114608802e+02
-3.775220590459270511e+02
-3.749429492788627272e+02
-4.453198747118149754e+02
-3.114483733505311420e+02
6.182296487400014939e+01
3.895530419231080828e+02
5.948098688983772035e+02
8.157487045352872883e+02
8.983644454822527905e+02
5.583566165841305065e+02
-4.352653686559205681e+01
-5.292612374028367412e+02
-8.280707200483087718e+02
-9.605260626637817722e+02
-7.969179898660178196e+02
-3.924803198296725668e+02
-1.538259606708558280e+01
2.417697050874134561e+02
3.985192222005487110e+02
3.837095293744309856e+02
2.625108639974426410e+02
2.255212255554190222e+02
2.159769712411076910e+02
8.961872540659167896e+01
-1.410250967811586520e+01
1.095823651098351803e+01
-3.817536906541094766e+01
-2.175712843238846403e+02
-2.831373742739997965e+02
-1.956141008962802914e+02
-1.564865566100449996e+02
-1.689233156731400527e+02
-9.726032426008966070e+01
1.743437569950321375e+01
4.694159197892332003e+01
-1.205532501583525118e+01
-4.350672336524402795e+01
3.877015693154888965e+01
1.446821104963608491e+02
1.392527879444729422e+02
9.253443803743813589e+01
9.930827867282746979e+01
3.749265480045045962e+01
-1.329001714921784014e+02
-2.009158872992572924e+02
-1.108681586288320631e+02
-5.259995963090494797e+01
-6.547027867507681265e+01
-4.415809178518946965e+01
-1.933485449940526024e+01
-4.425251768459403223e+01
-4.459545202401996988e+01
2.235859751370227855e+00
1.894091567984872881e+01
5.484891719590319070e+00
3.124009343259412930e+00
-2.581274491341031307e+01
-7.173390810531449802e+01
-3.608543729921468923e+01
4.478136801726308391e+01
3.137736095012616744e+01
-2.576689462631091132e+01
2.730502228892781602e+00
2.875382091517167282e+01
-3.746668718130577247e+01
-6.391729280000782865e+01
-1.969830498879869296e+01
-5.886560979990213127e+01
-1.356094137035935887e+02
-9.050197711130584821e+01
-1.098465593099087201e+01
-4.617684886635267105e+00
2.131197092156824979e+01
5.847529018761100872e+01
1.465363900063685776e+00
-5.206283327004218364e+01
-5.112774210251696871e+00
2.897269255866328308e+01
9.878731720135917271e+00
8.385514452423663556e+00
-2.532814504757654817e+01
-1.104260645567404140e+02
-1.283208101233882701e+02
-7.643221922807069291e+01
-4.190674143388127959e+01
-5.719231247252132277e-01
4.512356564202062259e+01
2.002306104463131220e+01
-2.281173163730889897e+01
7.003035458071231290e+00
4.424264519535027773e+01
1.034526276493271979e+01
-4.277476164610445153e+01
-5.036918275257567501e+01
-4.988809483706273795e+01
-9.914351521651727239e+01
-1.239221801161492920e+02
-2.662458808589383707e+01
6.513824593794662121e+01
1.259849315266426828e+01
-1.788937064833402957e+01
7.972306827179130551e+01
8.056459703380731696e+01
-6.520910163925208280e+01
-1.098879268434610736e+02
-5.917394467822915516e+01
-1.038902052900662625e+02
-1.520180274918431564e+02
-5.740884019365421409e+01
5.538595126928413492e+01
5.966332041877799242e+01
2.113020551060427010e+01
1.929591197614008635e+01
3.634420634852858711e+01
2.072650687184314933e+01
-1.415030345993948657e+01
-7.191140798441061577e+00
6.702733697337233565e+00
-5.039540142443541271e+01
-1.109337526502252160e+02
-9.054393822762341415e+01
-6.333002150056546498e+01
-7.298351590911606479e+01
-4.494978735780275514e+01
2.012071514644702575e+00
-2.009156149347645837e+01
-6.600139664484807156e+01
-5.124152068508445268e+01
-1.189886506893385132e+01
1.264052714511099396e+01
6.591197097402314853e+01
1.343849013285709191e+02
1.258510510047559876e+02
3.741245756115267795e+01
-4.812882660865416540e+01
-1.073938521972322633e+02
-1.430830254961680623e+02
-1.200031222580358445e+02
-6.063101695341590869e+01
-3.211294985200632368e+01
-2.941837981106217725e+01
-3.789460784956669670e+01
-7.386612045181800568e+01
-8.267777689091469995e+01
-2.029061813535304282e+01
2.700255904721768019e+01
1.019056771134618344e+01
6.533717139055230660e+00
2.937726605620184372e+01
7.435885156456734535e+00
-3.888020370544098370e+01
-2.789907405483577918e+01
2.952443041066003460e+01
6.575372574512647361e+01
8.642612567885683461e+01
1.286232929694560028e+02
1.333687085112880482e+02
2.549445785876293158e+01
-1.356869640376714869e+02
-2.581524263524929097e+02
-3.443847337837100326e+02
-3.932189071383513692e+02
-3.643942187068904559e+02
-2.693403815584010204e+02
-1.298121751622770716e+02
7.584827535296632561e+01
3.477552966974659512e+02
6.268460773290056522e+02
7.871143588432570368e+02
6.955200001444793543e+02
3.544995906053663361e+02
-1.301470459953626460e+02
-6.341170170587803341e+02
-9.357079480042436899e+02
-8.684003312140864637e+02
-5.749809349686420319e+02
-2.497156970376552181e+02
9.428916856038409833e+01
3.633111049443351703e+02
4.175026527054802727e+02
3.578096325196147518e+02
3.060849649515064357e+02
2.125910431606139639e+02
7.811369647788040993e+01
-4.048122942054172313e+01
-1.239443234546111370e+02
-1.216245684375727620e+02
-8.193530149541105345e+01
-1.305833843474808873e+02
-1.737657272622152504e+02
-1.211244621821966803e+02
-1.348415594687798773e+02
-1.901008585196489662e+02
-7.153490452834581959e+01
8.504719876443687099e+01
6.804509365668511123e+01
3.072364899550141359e+01
6.976890732922663574e+01
5.113056281028728733e+01
9.740504795221589518e-01
1.723993903944455752e+01
2.984159289160917794e+01
-6.231528988419547943e+00
-3.947691003933363163e+01
-5.341268059532384882e+01
-5.816102983024779149e+01
-6.812962674897192983e+01
-7.232785694332102366e+01
-3.849911496772414665e+01
-2.092280630365352678e+01
-3.893704682400209549e+01
1.572774111955403598e+01
7.192181222114817274e+01
-3.468227715178132797e+01
-1.284678645484293611e+02
-5.168679242255375073e+01
-3.070107743405983669e+01
-9.104777344234842928e+01
1.673246760771442609e+01
1.443905658778907366e+02
3.968890747199630908e+01
-7.514351320906523313e+01
-2.669708420348697331e+01
-7.957101329261821121e+00
-5.473422424310165013e+01
-4.135865201494762289e+01
-2.890962244314471263e+01
-6.467595708884461203e+01
-6.972533058139910622e+01
-4.320771506283347207e+01
7.416210297530874129e+00
9.392990762218585132e+01
9.867366151704652566e+01
-2.265260281818299504e+01
-1.017529780108886399e+02
-8.951765963445114949e+01
-1.055071837688831238e+02
-1.163862416249401974e+02
-2.379522052577208058e+01
7.654696581717111314e+01
6.316509910708325748e+01
-2.977307227729944827e+00
-1.290309125703109316e+01
1.171992442368584619e+01
-2.675362557227297344e+01
-1.026762490430949697e+02
-8.009012549410873305e+01
7.827152600617154121e+00
-5.294033506528318611e+00
-6.016524520321389247e+01
6.508893448191628295e-01
6.274467822176652021e+01
-2.875584005625277939e+00
-4.633934372092080878e+01
1.163782194984214158e+01
1.802593768610558200e+01
-7.093320548497658251e+01
-1.331411993675401959e+02
-1.065070379645355843e+02
-3.554758422504426107e+01
-7.264530582191213171e-01
5.879763456537798305e+00
6.493318007417690296e+01
8.831054139297643246e+01
-3.457925281320665079e+01
-1.114014935986451889e+02
-2.583761586050448500e+01
-2.230551896375274623e-01
-5.481911443787367233e+01
-5.188877109051272640e+00
2.433825591724854576e+01
-6.781028761011481265e+01
-7.931468562993471494e+01
-1.731546810601440356e+01
-2.930803091392123605e+01
-6.765487780457071665e+00
5.264894979401666575e+01
8.128382768304586392e+00
-1.537459266484900766e+01
2.890285561745982434e+01
-3.606797053504617878e+01
-1.008326897757329306e+02
-4.404734748458304239e+01
-7.300977883259194812e+01
-1.390772945938720397e+02
-2.958220523841836780e+01
4.173956448325380109e+01
-3.321414257515120028e+01
1.301497045047680245e+01
1.016391480824648568e+02
8.345618278931191014e+00
-6.073140625262411874e+01
-3.197378342559996867e+00
-2.005037372191221223e+01
-6.025020136954218231e+01
1.438770692469024226e+00
4.424590568390867418e+01
3.016861761922286433e+01
2.000736063229128447e+01
-2.606680935825226086e+01
-7.948741283132871160e+01
-9.237549999408622625e+01
-1.303496947023133430e+02
-1.650294410858901415e+02
-1.363119040449222155e+02
-1.241755853147840014e+02
-1.093633224651778022e+02
9.071465952816375022e+00
1.358415533159573556e+02
1.782440848637212980e+02
2.095296384548255446e+02
2.206607822997006565e+02
1.426711874525768451e+02
4.599331450096563856e+01
1.420015947814227530e+01
-4.912928894548308278e+00
-1.103177559412600033e+02
-2.762087815987120507e+02
-3.597687487175100500e+02
-3.661103360599807388e+02
-4.122861946342987380e+02
-3.782798000564475274e+02
-1.426506844954763835e+02
7.939022944205646581e+01
2.139697771104818571e+02
4.743982218170866645e+02
7.427273520693405544e+02
7.253255555278539077e+02
5.040050280951501804e+02
1.794565546055169989e+02
-3.155763836452334203e+02
-7.625617533345471202e+02
-8.764970794592207994e+02
-7.361639244331068994e+02
-4.597724130321732332e+02
-7.610371040589859604e+01
2.148102355659535760e+02
2.792512943592419674e+02
2.610834864473778794e+02
2.612191079971337899e+02
2.332246570842418123e+02
1.773679569877839981e+02
1.323708451526524925e+02
9.222793285219640325e+01
1.586884870683682891e+01
-9.930704693231466251e+01
-1.616300426894660518e+02
-1.455819947177692484e+02
-1.697100561215197558e+02
-2.237599049132690823e+02
-1.726903914325120013e+02
-8.293507694355044180e+01
-6.928829383226805305e+01
-3.069494496075796164e+01
6.462033026624153820e+01
7.262868069071747357e+01
1.371029750939320735e+01
2.716523499580519641e+01
7.610706415155021887e+01
6.397388663862813019e+01
2.378860022225145343e+01
1.205324959058203405e+01
9.349655767195670819e+00
-2.293159519102266941e+01
-6.608084576953868350e+01
-5.932257883357210915e+01
-2.025079242722494044e+01
-4.246935637444111222e+01
-1.080370517984160585e+02
-9.924886684198081355e+01
-3.690197784994471419e+01
-5.233638111475899279e+01
-1.152990878346433874e+02
-7.712415923287204578e+01
2.612896440146728239e+01
4.234152832090403251e+01
2.664141197610954848e+01
1.052711648073660342e+02
1.503833019231231560e+02
2.764760783195596971e+01
-9.458796342785473144e+01
-7.904373551002333897e+01
-5.545108982727181512e+01
-8.236031884118310131e+01
-6.139447443386056591e+01
-1.344278817087410616e+01
-1.732900031244989592e+01
-4.093609516286826988e+01
-5.308227965658062431e+01
-5.030577945366901105e+01
-5.960229156405524975e+00
1.936010121766340930e+01
-4.125835624108611910e+01
-7.128146479126374402e+01
6.450460696699835239e+00
4.682031628619279218e+01
9.425051209608596992e-01
1.419901978861401304e+01
7.218566009629873292e+01
1.416952511926231750e+01
-1.161313137892409202e+02
-1.447774106310996274e+02
-7.753094115001326259e+01
-4.162372306096486341e+01
-4.401965812996321858e+01
1.064651072501109041e+01
9.862313915989567192e+01
6.668190572084567691e+01
-6.976402199876496013e+01
-9.725410526325390492e+01
-1.024644122452883011e+01
-1.525762891211092054e+01
-7.372924162220088817e+01
-1.105591924736121001e+01
5.309701032826956890e+01
-2.776933623596502443e+01
-8.912987376140523565e+01
-1.942079649385943441e+01
3.624990173428713547e+01
4.407708192829336014e+00
-4.133715453090670167e+01
-6.214079669539120232e+01
-5.895650185777920171e+01
-4.707455590007211299e+01
-2.963623535635825590e+01
3.517427596154745117e+01
9.376296795138652840e+01
2.247425082915344419e+01
-9.948309476856674394e+01
-1.112944531991221595e+02
-6.650401389651688078e+01
-5.220693207943384806e+01
-2.117402087447836934e+01
2.727358965743773567e+01
4.174985464688593595e+01
2.723402180759171642e+01
-2.232217017835999684e+00
-4.721261603951827368e+00
3.652099214988322018e+01
-1.167697820661988573e+00
-1.266994512675432389e+02
-1.401324582818902229e+02
-5.848555529407921938e+01
-6.530386773049347937e+01
-6.889819384738181896e+01
2.662786563053792221e+01
3.446727441774403644e+01
-5.646569729683466221e+01
-2.394638314934541512e+01
9.045854390446193349e+01
1.121196274310364061e+02
7.860608095585189403e+01
2.069409446465547475e+01
-1.092001532824532433e+02
-2.027261482508584436e+02
-1.496433421187349779e+02
-3.750861869826170647e+01
5.255366108070873565e+01
1.203838103248454274e+02
9.652161237600448374e+01
-4.534608433498953417e+01
-1.583523470786682310e+02
-1.486956204868812392e+02
-1.045572372832877193e+02
-8.038830778517663589e+01
-4.137558350777898397e+01
-2.275874865907630706e+01
-4.629101524009135460e+01
-1.470826611145923835e+01
8.887568859727230119e+01
1.740762508310387489e+02
2.428270997106026812e+02
2.733070684846562699e+02
1.518523791980868509e+02
-3.846913887435063373e+01
-1.338658544139917126e+02
-2.352823673973333598e+02
-4.032683471381389495e+02
-4.432553516789923833e+02
-3.625117465410874615e+02
-3.500281803383095394e+02
-2.961723592622721526e+02
-2.955691334644449952e+01
3.205241384833638563e+02
6.189977156078520011e+02
8.443021160767817719e+02
8.648478375676584164e+02
5.609093878125319179e+02
9.747481874344021691e+00
-5.893037268377011060e+02
-9.831466114257059417e+02
-1.006954579589268178e+03
-7.231717179935468494e+02
-2.851943974203895777e+02
1.427756985750846752e+02
3.726728300313733939e+02
3.840577578114696848e+02
3.147387823024129148e+02
2.253337098569396630e+02
1.681463912401748360e+02
1.865099675002517188e+02
1.314729892030606209e+02
-4.772066854306197570e+01
-1.397546855980797318e+02
-1.430225611306195219e+02
-2.066774193461000948e+02
-1.891818009280815716e+02
-5.272653453380816302e+01
-7.459055158524292040e+01
-2.005018665034288574e+02
-1.423362427585399530e+02
-2.005096082452110551e+01
-5.932227618124201740e+00
5.527484443090231991e+01
1.638603467050760685e+02
1.225843705941863107e+02
-4.445831727041440473e+00
-3.443001976790992558e+01
1.730642839078533868e+01
4.211249126674614729e+01
4.032857642284827904e+00
-2.352428430965913009e+01
