-2.724790000000000000e+05
-2.717870000000000000e+05
-2.735060000000000000e+05
-2.745670000000000000e+05
-2.742720000000000000e+05
-2.725140000000000000e+05
-2.717580000000000000e+05
-2.734560000000000000e+05
-2.748020000000000000e+05
-2.743900000000000000e+05
-2.724690000000000000e+05
-2.714670000000000000e+05
-2.730000000000000000e+05
-2.742910000000000000e+05
-2.738590000000000000e+05
-2.718970000000000000e+05
-2.709040000000000000e+05
-2.725460000000000000e+05
-2.744040000000000000e+05
-2.749040000000000000e+05
-2.736030000000000000e+05
-2.726240000000000000e+05
-2.738840000000000000e+05
-2.750380000000000000e+05
-2.746660000000000000e+05
-2.727400000000000000e+05
-2.716730000000000000e+05
-2.730460000000000000e+05
-2.742440000000000000e+05
-2.741870000000000000e+05
-2.726440000000000000e+05
-2.716540000000000000e+05
-2.730810000000000000e+05
-2.742990000000000000e+05
-2.742890000000000000e+05
-2.726640000000000000e+05
-2.715840000000000000e+05
-2.728910000000000000e+05
-2.745040000000000000e+05
-2.743430000000000000e+05
-2.726120000000000000e+05
-2.716750000000000000e+05
-2.730100000000000000e+05
-2.742860000000000000e+05
-2.743610000000000000e+05
-2.728230000000000000e+05
-2.715500000000000000e+05
-2.729650000000000000e+05
-2.744540000000000000e+05
-2.743330000000000000e+05
-2.726410000000000000e+05
-2.715540000000000000e+05
-2.729020000000000000e+05
-2.743910000000000000e+05
-2.743340000000000000e+05
-2.727880000000000000e+05
-2.715620000000000000e+05
-2.728110000000000000e+05
-2.743220000000000000e+05
-2.742710000000000000e+05
-2.725970000000000000e+05
-2.713080000000000000e+05
-2.726360000000000000e+05
-2.743720000000000000e+05
-2.742480000000000000e+05
-2.726050000000000000e+05
-2.714260000000000000e+05
-2.727400000000000000e+05
-2.741860000000000000e+05
-2.741090000000000000e+05
-2.726820000000000000e+05
-2.715550000000000000e+05
-2.726120000000000000e+05
-2.740620000000000000e+05
-2.740080000000000000e+05
-2.724580000000000000e+05
-2.712270000000000000e+05
-2.724370000000000000e+05
-2.740060000000000000e+05
-2.741760000000000000e+05
-2.726010000000000000e+05
-2.712640000000000000e+05
-2.723520000000000000e+05
-2.737920000000000000e+05
-2.738410000000000000e+05
-2.724500000000000000e+05
-2.714480000000000000e+05
-2.723700000000000000e+05
-2.737600000000000000e+05
-2.739720000000000000e+05
-2.725380000000000000e+05
-2.711770000000000000e+05
-2.722580000000000000e+05
-2.737220000000000000e+05
-2.739220000000000000e+05
-2.726020000000000000e+05
-2.712770000000000000e+05
-2.722560000000000000e+05
-2.736670000000000000e+05
-2.737490000000000000e+05
-2.724190000000000000e+05
-2.711320000000000000e+05
-2.721060000000000000e+05
-2.735520000000000000e+05
-2.737330000000000000e+05
-2.724120000000000000e+05
-2.711250000000000000e+05
-2.719990000000000000e+05
-2.733340000000000000e+05
-2.733660000000000000e+05
-2.722410000000000000e+05
-2.712470000000000000e+05
-2.719920000000000000e+05
-2.733340000000000000e+05
-2.734660000000000000e+05
-2.722080000000000000e+05
-2.710410000000000000e+05
-2.718610000000000000e+05
-2.730660000000000000e+05
-2.733720000000000000e+05
-2.723250000000000000e+05
-2.710610000000000000e+05
-2.717300000000000000e+05
-2.730430000000000000e+05
-2.732860000000000000e+05
-2.722280000000000000e+05
-2.707620000000000000e+05
-2.714990000000000000e+05
-2.728320000000000000e+05
-2.730860000000000000e+05
-2.721010000000000000e+05
-2.708090000000000000e+05
-2.712980000000000000e+05
-2.725860000000000000e+05
-2.729320000000000000e+05
-2.718990000000000000e+05
-2.707110000000000000e+05
-2.713080000000000000e+05
-2.725680000000000000e+05
-2.729180000000000000e+05
-2.719420000000000000e+05
-2.706140000000000000e+05
-2.711440000000000000e+05
-2.724390000000000000e+05
-2.727390000000000000e+05
-2.717920000000000000e+05
-2.704140000000000000e+05
-2.709090000000000000e+05
-2.722780000000000000e+05
-2.727060000000000000e+05
-2.715890000000000000e+05
-2.704890000000000000e+05
-2.709320000000000000e+05
-2.721610000000000000e+05
-2.727770000000000000e+05
-2.719180000000000000e+05
-2.704370000000000000e+05
-2.706920000000000000e+05
-2.721640000000000000e+05
-2.725510000000000000e+05
-2.714330000000000000e+05
-2.701570000000000000e+05
-2.706570000000000000e+05
-2.719040000000000000e+05
-2.724580000000000000e+05
-2.715520000000000000e+05
-2.701110000000000000e+05
-2.704410000000000000e+05
-2.718240000000000000e+05
-2.722950000000000000e+05
-2.714230000000000000e+05
-2.698290000000000000e+05
-2.699340000000000000e+05
-2.711660000000000000e+05
-2.713990000000000000e+05
-2.702820000000000000e+05
-2.688790000000000000e+05
-2.693920000000000000e+05
-2.709590000000000000e+05
-2.721190000000000000e+05
-2.718440000000000000e+05
-2.707390000000000000e+05
-2.706720000000000000e+05
-2.716750000000000000e+05
-2.719910000000000000e+05
-2.710470000000000000e+05
-2.694340000000000000e+05
-2.695600000000000000e+05
-2.709930000000000000e+05
-2.714390000000000000e+05
-2.704960000000000000e+05
-2.690600000000000000e+05
-2.695180000000000000e+05
-2.709770000000000000e+05
-2.713390000000000000e+05
-2.703890000000000000e+05
-2.690660000000000000e+05
-2.694330000000000000e+05
-2.706770000000000000e+05
-2.712010000000000000e+05
-2.704450000000000000e+05
-2.691210000000000000e+05
-2.692000000000000000e+05
-2.704430000000000000e+05
-2.710070000000000000e+05
-2.701240000000000000e+05
-2.687900000000000000e+05
-2.690180000000000000e+05
-2.701650000000000000e+05
-2.706590000000000000e+05
-2.701610000000000000e+05
-2.687990000000000000e+05
-2.687660000000000000e+05
-2.700260000000000000e+05
-2.706870000000000000e+05
-2.700030000000000000e+05
-2.684460000000000000e+05
-2.685570000000000000e+05
-2.699210000000000000e+05
-2.702910000000000000e+05
-2.696900000000000000e+05
-2.684930000000000000e+05
-2.684590000000000000e+05
-2.697770000000000000e+05
-2.704610000000000000e+05
-2.697050000000000000e+05
-2.682040000000000000e+05
-2.680110000000000000e+05
-2.694880000000000000e+05
-2.702250000000000000e+05
-2.694710000000000000e+05
-2.680470000000000000e+05
-2.680160000000000000e+05
-2.693890000000000000e+05
-2.700020000000000000e+05
-2.692440000000000000e+05
-2.677810000000000000e+05
-2.677310000000000000e+05
-2.690280000000000000e+05
-2.698180000000000000e+05
-2.691100000000000000e+05
-2.676920000000000000e+05
-2.676670000000000000e+05
-2.690720000000000000e+05
-2.697410000000000000e+05
-2.690890000000000000e+05
-2.674570000000000000e+05
-2.672910000000000000e+05
-2.686100000000000000e+05
-2.694110000000000000e+05
-2.690030000000000000e+05
-2.675350000000000000e+05
-2.672690000000000000e+05
-2.686570000000000000e+05
-2.694510000000000000e+05
-2.688980000000000000e+05
-3.292270000000000000e+05
-3.299540000000000000e+05
-3.271360000000000000e+05
-3.239350000000000000e+05
-3.256410000000000000e+05
-3.293220000000000000e+05
-3.301370000000000000e+05
-3.272390000000000000e+05
-3.240110000000000000e+05
-3.255370000000000000e+05
-3.291120000000000000e+05
-3.300140000000000000e+05
-3.271310000000000000e+05
-3.238660000000000000e+05
-3.255100000000000000e+05
-3.291230000000000000e+05
-3.300020000000000000e+05
-3.273310000000000000e+05
-3.240890000000000000e+05
-3.255440000000000000e+05
-3.291790000000000000e+05
-3.299410000000000000e+05
-3.272320000000000000e+05
-3.239860000000000000e+05
-3.253690000000000000e+05
-3.289620000000000000e+05
-3.299640000000000000e+05
-3.272570000000000000e+05
-3.238190000000000000e+05
-3.250760000000000000e+05
-3.287490000000000000e+05
-3.298240000000000000e+05
-3.272970000000000000e+05
-3.239060000000000000e+05
-3.250940000000000000e+05
-3.286520000000000000e+05
-3.297540000000000000e+05
-3.272940000000000000e+05
-3.238000000000000000e+05
-3.249020000000000000e+05
-3.285510000000000000e+05
-3.297490000000000000e+05
-3.272370000000000000e+05
-3.237500000000000000e+05
-3.248500000000000000e+05
-3.285190000000000000e+05
-3.295420000000000000e+05
-3.271510000000000000e+05
-3.237710000000000000e+05
-3.247630000000000000e+05
-3.284690000000000000e+05
-3.296570000000000000e+05
-3.271650000000000000e+05
-3.236270000000000000e+05
-3.246050000000000000e+05
-3.282810000000000000e+05
-3.295120000000000000e+05
-3.271870000000000000e+05
-3.236040000000000000e+05
-3.244650000000000000e+05
-3.281520000000000000e+05
-3.294120000000000000e+05
-3.271140000000000000e+05
-3.234970000000000000e+05
-3.243070000000000000e+05
-3.280960000000000000e+05
-3.294360000000000000e+05
-3.270900000000000000e+05
-3.234930000000000000e+05
-3.242810000000000000e+05
-3.279660000000000000e+05
-3.293820000000000000e+05
-3.271890000000000000e+05
-3.235720000000000000e+05
-3.242420000000000000e+05
-3.279060000000000000e+05
-3.294110000000000000e+05
-3.271590000000000000e+05
-3.236120000000000000e+05
-3.242610000000000000e+05
-3.278270000000000000e+05
-3.293710000000000000e+05
-3.272990000000000000e+05
-3.236480000000000000e+05
-3.240890000000000000e+05
-3.277180000000000000e+05
-3.293270000000000000e+05
-3.272210000000000000e+05
-3.235830000000000000e+05
-3.240650000000000000e+05
-3.276870000000000000e+05
-3.293150000000000000e+05
-3.272590000000000000e+05
-3.236680000000000000e+05
-3.239550000000000000e+05
-3.275490000000000000e+05
-3.292170000000000000e+05
-3.273030000000000000e+05
-3.236450000000000000e+05
-3.238770000000000000e+05
-3.274090000000000000e+05
-3.292920000000000000e+05
-3.273990000000000000e+05
-3.237090000000000000e+05
-3.237970000000000000e+05
-3.272230000000000000e+05
-3.287780000000000000e+05
-3.267190000000000000e+05
-3.228600000000000000e+05
-3.227580000000000000e+05
-3.264030000000000000e+05
-3.285370000000000000e+05
-3.274170000000000000e+05
-3.247740000000000000e+05
-3.251710000000000000e+05
-3.285670000000000000e+05
-3.300920000000000000e+05
-3.280150000000000000e+05
-3.241440000000000000e+05
-3.238510000000000000e+05
-3.273630000000000000e+05
-3.291270000000000000e+05
-3.273140000000000000e+05
-3.236260000000000000e+05
-3.235230000000000000e+05
-3.271320000000000000e+05
-3.291880000000000000e+05
-3.273820000000000000e+05
-3.235440000000000000e+05
-3.234160000000000000e+05
-3.272520000000000000e+05
-3.293340000000000000e+05
-3.274970000000000000e+05
-3.236550000000000000e+05
-3.233490000000000000e+05
-3.270340000000000000e+05
-3.290290000000000000e+05
-3.273810000000000000e+05
-3.235870000000000000e+05
-3.232370000000000000e+05
-3.269830000000000000e+05
-3.291420000000000000e+05
-3.273760000000000000e+05
-3.234120000000000000e+05
-3.230010000000000000e+05
-3.267640000000000000e+05
-3.290650000000000000e+05
-3.273460000000000000e+05
-3.233170000000000000e+05
-3.228420000000000000e+05
-3.267320000000000000e+05
-3.291140000000000000e+05
-3.273850000000000000e+05
-3.232980000000000000e+05
-3.226170000000000000e+05
-3.265120000000000000e+05
-3.290460000000000000e+05
-3.273840000000000000e+05
-3.233320000000000000e+05
-3.226370000000000000e+05
-3.265620000000000000e+05
-3.291160000000000000e+05
-3.274940000000000000e+05
-3.232540000000000000e+05
-3.224490000000000000e+05
-3.264260000000000000e+05
-3.291110000000000000e+05
-3.275340000000000000e+05
-3.232940000000000000e+05
-3.223990000000000000e+05
-3.263310000000000000e+05
-3.290070000000000000e+05
-3.275380000000000000e+05
-3.232950000000000000e+05
-3.222870000000000000e+05
-3.262040000000000000e+05
-3.289890000000000000e+05
-3.275720000000000000e+05
-3.232210000000000000e+05
-3.220890000000000000e+05
-3.260300000000000000e+05
-3.289020000000000000e+05
-3.275510000000000000e+05
-3.232690000000000000e+05
-3.221220000000000000e+05
-3.260700000000000000e+05
-3.289230000000000000e+05
-3.275830000000000000e+05
-3.232760000000000000e+05
-3.220660000000000000e+05
-3.259070000000000000e+05
-3.287320000000000000e+05
-3.274980000000000000e+05
-3.233660000000000000e+05
-3.219440000000000000e+05
-3.258050000000000000e+05
-3.288170000000000000e+05
-3.275860000000000000e+05
-3.233460000000000000e+05
-3.219390000000000000e+05
-3.257260000000000000e+05
-3.287060000000000000e+05
-3.275270000000000000e+05
-3.233570000000000000e+05
-3.217710000000000000e+05
-3.255810000000000000e+05
-3.286930000000000000e+05
-3.275720000000000000e+05
-3.234550000000000000e+05
-3.218050000000000000e+05
-3.255360000000000000e+05
-3.285340000000000000e+05
-3.275520000000000000e+05
-3.235600000000000000e+05
-3.217860000000000000e+05
-3.254480000000000000e+05
-3.284870000000000000e+05
-3.275760000000000000e+05
-3.235180000000000000e+05
-3.216690000000000000e+05
-3.252840000000000000e+05
-3.284340000000000000e+05
-3.275220000000000000e+05
-3.235030000000000000e+05
-3.217150000000000000e+05
-3.250890000000000000e+05
-3.281370000000000000e+05
-3.273130000000000000e+05
-3.235390000000000000e+05
-3.217340000000000000e+05
-3.250630000000000000e+05
-3.281500000000000000e+05
-3.273290000000000000e+05
-3.235190000000000000e+05
-3.215710000000000000e+05
-3.248920000000000000e+05
-3.280240000000000000e+05
-3.273930000000000000e+05
-3.236640000000000000e+05
-3.215680000000000000e+05
-3.248500000000000000e+05
-3.279330000000000000e+05
-3.273310000000000000e+05
-3.236820000000000000e+05
-3.215860000000000000e+05
-3.247030000000000000e+05
-3.277920000000000000e+05
-3.273310000000000000e+05
-3.236550000000000000e+05
-3.214080000000000000e+05
-3.244160000000000000e+05
-3.278520000000000000e+05
-3.274580000000000000e+05
-3.237850000000000000e+05
-3.216390000000000000e+05
-3.246570000000000000e+05
-3.278220000000000000e+05
-3.272890000000000000e+05
-3.237450000000000000e+05
-3.213920000000000000e+05
-3.243340000000000000e+05
-3.276110000000000000e+05
-3.272370000000000000e+05
-3.236690000000000000e+05
-3.213610000000000000e+05
-3.242010000000000000e+05
-3.274560000000000000e+05
-3.272620000000000000e+05
-3.237350000000000000e+05
-3.211890000000000000e+05
-3.238030000000000000e+05
-3.269210000000000000e+05
-3.266110000000000000e+05
-3.229210000000000000e+05
-3.201990000000000000e+05
-3.228590000000000000e+05
-3.263780000000000000e+05
-3.267110000000000000e+05
-3.240220000000000000e+05
-3.221760000000000000e+05
-3.250240000000000000e+05
-3.280170000000000000e+05
-3.278510000000000000e+05
-3.241830000000000000e+05
-3.212210000000000000e+05
-3.238090000000000000e+05
-3.270760000000000000e+05
-3.271240000000000000e+05
-3.237410000000000000e+05
-3.209440000000000000e+05
-3.233940000000000000e+05
-3.268870000000000000e+05
-3.269990000000000000e+05
-3.236580000000000000e+05
-3.208070000000000000e+05
-3.232740000000000000e+05
-3.267080000000000000e+05
-3.269270000000000000e+05
-3.236270000000000000e+05
-3.207640000000000000e+05
-3.231310000000000000e+05
-3.265980000000000000e+05
-3.268700000000000000e+05
-3.236780000000000000e+05
-3.206540000000000000e+05
-3.229100000000000000e+05
-3.264800000000000000e+05
-3.268660000000000000e+05
-3.236640000000000000e+05
-3.207150000000000000e+05
-3.228350000000000000e+05
-3.264470000000000000e+05
-3.268350000000000000e+05
-3.235770000000000000e+05
-3.206290000000000000e+05
-3.228210000000000000e+05
-3.263170000000000000e+05
-3.266470000000000000e+05
-3.236110000000000000e+05
-3.205770000000000000e+05
-3.225340000000000000e+05
-3.261640000000000000e+05
-3.266680000000000000e+05
-3.235460000000000000e+05
-3.204360000000000000e+05
-3.224540000000000000e+05
-3.261070000000000000e+05
-3.266600000000000000e+05
-3.236550000000000000e+05
-3.204610000000000000e+05
-3.223570000000000000e+05
-3.258690000000000000e+05
-3.265060000000000000e+05
-3.235700000000000000e+05
-3.202660000000000000e+05
-3.221570000000000000e+05
-3.258560000000000000e+05
-3.264920000000000000e+05
-3.234070000000000000e+05
-3.201640000000000000e+05
-3.220020000000000000e+05
-3.256670000000000000e+05
-3.264820000000000000e+05
-3.235520000000000000e+05
-3.200810000000000000e+05
-3.218020000000000000e+05
-3.256310000000000000e+05
-3.263740000000000000e+05
-3.235340000000000000e+05
-3.202660000000000000e+05
-3.219100000000000000e+05
-3.255030000000000000e+05
-3.263540000000000000e+05
-3.235770000000000000e+05
-3.203310000000000000e+05
-3.219140000000000000e+05
-3.255440000000000000e+05
-3.263960000000000000e+05
-3.237110000000000000e+05
-3.204120000000000000e+05
-3.218180000000000000e+05
-3.255300000000000000e+05
-3.264190000000000000e+05
-3.237700000000000000e+05
-3.203670000000000000e+05
-3.216560000000000000e+05
-3.253360000000000000e+05
-3.262970000000000000e+05
-3.236240000000000000e+05
-3.201620000000000000e+05
-3.213740000000000000e+05
-3.251270000000000000e+05
-3.263320000000000000e+05
-3.236550000000000000e+05
-3.201990000000000000e+05
-3.213390000000000000e+05
-3.250370000000000000e+05
-3.260370000000000000e+05
-3.236040000000000000e+05
-3.201440000000000000e+05
-3.211740000000000000e+05
-3.249380000000000000e+05
-3.261470000000000000e+05
-3.236310000000000000e+05
-3.200380000000000000e+05
-3.210530000000000000e+05
-3.248460000000000000e+05
-3.260810000000000000e+05
-3.236690000000000000e+05
-3.199690000000000000e+05
-3.209200000000000000e+05
-3.246390000000000000e+05
-3.259610000000000000e+05
-3.235210000000000000e+05
-3.198920000000000000e+05
-3.208180000000000000e+05
-3.244970000000000000e+05
-3.257660000000000000e+05
-3.235600000000000000e+05
-3.199800000000000000e+05
-3.206040000000000000e+05
-3.242890000000000000e+05
-3.258640000000000000e+05
-3.236010000000000000e+05
-3.198630000000000000e+05
-3.205170000000000000e+05
-3.242950000000000000e+05
-3.257670000000000000e+05
-3.236370000000000000e+05
-3.198880000000000000e+05
-3.203540000000000000e+05
-3.241190000000000000e+05
-3.257570000000000000e+05
-3.235740000000000000e+05
-3.199110000000000000e+05
-3.203960000000000000e+05
-3.240940000000000000e+05
-3.258060000000000000e+05
-3.237880000000000000e+05
-3.200670000000000000e+05
-3.202740000000000000e+05
-3.239390000000000000e+05
-3.257610000000000000e+05
-3.236590000000000000e+05
-3.200150000000000000e+05
-3.202240000000000000e+05
-3.238740000000000000e+05
-3.256870000000000000e+05
-3.237000000000000000e+05
-3.199300000000000000e+05
-3.201540000000000000e+05
-3.238640000000000000e+05
-3.256760000000000000e+05
-3.236990000000000000e+05
-3.197830000000000000e+05
-3.196980000000000000e+05
-3.232110000000000000e+05
-3.249940000000000000e+05
-3.229070000000000000e+05
-3.189060000000000000e+05
-3.187630000000000000e+05
-3.226600000000000000e+05
-3.251020000000000000e+05
-3.241290000000000000e+05
-3.209840000000000000e+05
-3.210120000000000000e+05
-3.243460000000000000e+05
-3.259880000000000000e+05
-3.241120000000000000e+05
-3.201120000000000000e+05
-3.197030000000000000e+05
-3.233520000000000000e+05
-3.254110000000000000e+05
-3.235740000000000000e+05
-3.198770000000000000e+05
-3.196340000000000000e+05
-3.232460000000000000e+05
-3.252040000000000000e+05
-3.235920000000000000e+05
-3.198480000000000000e+05
-3.194140000000000000e+05
-3.230860000000000000e+05
-3.252320000000000000e+05
-3.236660000000000000e+05
-3.197940000000000000e+05
-3.192280000000000000e+05
-3.228260000000000000e+05
-3.251580000000000000e+05
-3.236810000000000000e+05
-3.198160000000000000e+05
-3.192420000000000000e+05
-3.228170000000000000e+05
-3.250580000000000000e+05
-3.235630000000000000e+05
-3.198040000000000000e+05
-3.191160000000000000e+05
-3.227230000000000000e+05
-3.249960000000000000e+05
-3.235510000000000000e+05
-3.198410000000000000e+05
-3.190590000000000000e+05
-3.225590000000000000e+05
-3.249390000000000000e+05
-3.235020000000000000e+05
-3.197460000000000000e+05
-3.188870000000000000e+05
-3.223380000000000000e+05
-3.247340000000000000e+05
-3.236260000000000000e+05
-3.197470000000000000e+05
-3.187410000000000000e+05
-3.222740000000000000e+05
-3.248020000000000000e+05
-3.235420000000000000e+05
-3.197040000000000000e+05
-3.186450000000000000e+05
-3.221440000000000000e+05
-3.246900000000000000e+05
-3.234870000000000000e+05
-3.197300000000000000e+05
-3.185380000000000000e+05
-3.220780000000000000e+05
-3.246870000000000000e+05
-3.234240000000000000e+05
-3.197400000000000000e+05
-3.185040000000000000e+05
-3.218540000000000000e+05
-3.243710000000000000e+05
-3.233160000000000000e+05
-3.197320000000000000e+05
-3.184970000000000000e+05
-3.218940000000000000e+05
-3.245070000000000000e+05
-3.235290000000000000e+05
-3.197940000000000000e+05
-3.182820000000000000e+05
-3.216610000000000000e+05
-3.244960000000000000e+05
-3.235720000000000000e+05
-3.198330000000000000e+05
-3.182820000000000000e+05
-3.215100000000000000e+05
-3.243050000000000000e+05
-3.235190000000000000e+05
-3.196310000000000000e+05
-3.181490000000000000e+05
-3.214550000000000000e+05
-3.242350000000000000e+05
-3.234070000000000000e+05
-3.196690000000000000e+05
-3.180560000000000000e+05
-3.213130000000000000e+05
-3.242020000000000000e+05
-3.234340000000000000e+05
-3.197440000000000000e+05
-3.180740000000000000e+05
-3.212700000000000000e+05
-3.240770000000000000e+05
-3.232790000000000000e+05
-3.197490000000000000e+05
-3.179340000000000000e+05
-3.209260000000000000e+05
-3.238270000000000000e+05
-3.234040000000000000e+05
-3.198550000000000000e+05
-3.179310000000000000e+05
-3.210160000000000000e+05
-3.239010000000000000e+05
-3.233120000000000000e+05
-3.198090000000000000e+05
-3.178080000000000000e+05
-3.208660000000000000e+05
-3.238570000000000000e+05
-3.232670000000000000e+05
-3.196690000000000000e+05
-3.176860000000000000e+05
-3.207410000000000000e+05
-3.237480000000000000e+05
-3.233190000000000000e+05
-3.197150000000000000e+05
-3.175350000000000000e+05
-3.204840000000000000e+05
-3.236390000000000000e+05
-3.232270000000000000e+05
-3.196150000000000000e+05
-3.175100000000000000e+05
-3.203920000000000000e+05
-3.234680000000000000e+05
-3.230800000000000000e+05
-3.196790000000000000e+05
-3.175260000000000000e+05
-3.203040000000000000e+05
-3.234580000000000000e+05
-3.232580000000000000e+05
-3.197840000000000000e+05
-3.173580000000000000e+05
-3.200960000000000000e+05
-3.232960000000000000e+05
-3.231050000000000000e+05
-3.197760000000000000e+05
-3.173420000000000000e+05
-3.200470000000000000e+05
-3.234070000000000000e+05
-3.231640000000000000e+05
-3.198890000000000000e+05
-3.174230000000000000e+05
-3.200590000000000000e+05
-3.232820000000000000e+05
-3.231460000000000000e+05
-3.197880000000000000e+05
-3.172000000000000000e+05
-3.198240000000000000e+05
-3.230180000000000000e+05
-3.230200000000000000e+05
-3.197480000000000000e+05
-3.171360000000000000e+05
-3.196940000000000000e+05
-3.231070000000000000e+05
-3.232560000000000000e+05
-3.197900000000000000e+05
-3.169090000000000000e+05
-3.191890000000000000e+05
-3.223020000000000000e+05
-3.221730000000000000e+05
-3.187110000000000000e+05
-3.160360000000000000e+05
-3.185380000000000000e+05
-3.222040000000000000e+05
-3.228470000000000000e+05
-3.205420000000000000e+05
-3.182370000000000000e+05
-3.203380000000000000e+05
-3.234670000000000000e+05
-3.235780000000000000e+05
-3.200590000000000000e+05
-3.171110000000000000e+05
-3.193440000000000000e+05
-3.226920000000000000e+05
-3.228810000000000000e+05
-3.197840000000000000e+05
-3.167970000000000000e+05
-3.190110000000000000e+05
-3.225410000000000000e+05
-3.229340000000000000e+05
-3.197770000000000000e+05
-3.168930000000000000e+05
-3.190480000000000000e+05
-3.225070000000000000e+05
-3.229040000000000000e+05
-3.199150000000000000e+05
-3.168680000000000000e+05
-3.188240000000000000e+05
-3.223540000000000000e+05
-3.229160000000000000e+05
-3.199130000000000000e+05
-3.167940000000000000e+05
-3.186220000000000000e+05
-3.223070000000000000e+05
-3.229890000000000000e+05
-3.200410000000000000e+05
-3.167680000000000000e+05
-3.186690000000000000e+05
-3.224140000000000000e+05
-3.230870000000000000e+05
-3.201410000000000000e+05
-3.167560000000000000e+05
-3.184330000000000000e+05
-3.222380000000000000e+05
-3.228790000000000000e+05
-3.198310000000000000e+05
-3.166370000000000000e+05
-3.185460000000000000e+05
-3.220450000000000000e+05
-3.229000000000000000e+05
-3.201500000000000000e+05
-3.167350000000000000e+05
-3.183290000000000000e+05
-3.219840000000000000e+05
-3.228560000000000000e+05
-3.201250000000000000e+05
-3.166960000000000000e+05
-3.182150000000000000e+05
-3.219760000000000000e+05
-3.227490000000000000e+05
-3.199920000000000000e+05
-3.166450000000000000e+05
-3.180700000000000000e+05
-3.217440000000000000e+05
-3.227840000000000000e+05
-3.201430000000000000e+05
-3.166530000000000000e+05
-3.180660000000000000e+05
-3.218050000000000000e+05
-3.227260000000000000e+05
-3.198690000000000000e+05
-3.164410000000000000e+05
-3.179460000000000000e+05
-3.217160000000000000e+05
-3.228210000000000000e+05
-3.202200000000000000e+05
-3.167410000000000000e+05
-3.178860000000000000e+05
-3.216370000000000000e+05
-3.228130000000000000e+05
-3.202300000000000000e+05
-3.166240000000000000e+05
-3.178320000000000000e+05
-3.215040000000000000e+05
-3.225680000000000000e+05
-3.203020000000000000e+05
-3.167990000000000000e+05
-3.177820000000000000e+05
-3.215060000000000000e+05
-3.227440000000000000e+05
-3.202870000000000000e+05
-3.166720000000000000e+05
-3.176520000000000000e+05
-3.212710000000000000e+05
-3.225470000000000000e+05
-3.201560000000000000e+05
-3.166590000000000000e+05
-3.176420000000000000e+05
-3.213300000000000000e+05
-3.226340000000000000e+05
-3.202820000000000000e+05
-3.166720000000000000e+05
-3.174480000000000000e+05
-3.211150000000000000e+05
-3.224950000000000000e+05
-3.203720000000000000e+05
-3.166690000000000000e+05
-3.173660000000000000e+05
-3.210750000000000000e+05
-3.226320000000000000e+05
-3.204620000000000000e+05
-3.166520000000000000e+05
-3.172610000000000000e+05
-3.209910000000000000e+05
-3.224820000000000000e+05
-3.204260000000000000e+05
-3.167750000000000000e+05
-3.173060000000000000e+05
-3.209500000000000000e+05
-3.225700000000000000e+05
-3.206280000000000000e+05
-3.168060000000000000e+05
-3.169610000000000000e+05
-3.208170000000000000e+05
-3.226660000000000000e+05
-3.206920000000000000e+05
-3.168620000000000000e+05
-3.171140000000000000e+05
-3.209220000000000000e+05
-3.225870000000000000e+05
-3.205290000000000000e+05
-3.168300000000000000e+05
-3.170170000000000000e+05
-3.207370000000000000e+05
-3.224710000000000000e+05
-3.206020000000000000e+05
-3.169950000000000000e+05
-3.171340000000000000e+05
-3.207260000000000000e+05
-3.225320000000000000e+05
-3.206360000000000000e+05
-3.170090000000000000e+05
-3.170420000000000000e+05
-3.207910000000000000e+05
-3.227620000000000000e+05
-3.209540000000000000e+05
-3.171090000000000000e+05
-3.169860000000000000e+05
-3.208330000000000000e+05
-3.227820000000000000e+05
-3.209590000000000000e+05
-3.172440000000000000e+05
-3.170210000000000000e+05
-3.206960000000000000e+05
-3.226510000000000000e+05
-3.209640000000000000e+05
-3.172700000000000000e+05
-3.170270000000000000e+05
-3.207210000000000000e+05
-3.227910000000000000e+05
-3.210960000000000000e+05
-3.173810000000000000e+05
-3.169610000000000000e+05
-3.204370000000000000e+05
-3.223940000000000000e+05
-3.205660000000000000e+05
-3.164770000000000000e+05
-3.157680000000000000e+05
-3.194900000000000000e+05
-3.219620000000000000e+05
-3.208880000000000000e+05
-3.179360000000000000e+05
-3.180590000000000000e+05
-3.217620000000000000e+05
-3.237710000000000000e+05
-3.219470000000000000e+05
-3.178940000000000000e+05
-3.170600000000000000e+05
-3.205090000000000000e+05
-3.227690000000000000e+05
-3.212750000000000000e+05
-3.174340000000000000e+05
-3.166860000000000000e+05
-3.202300000000000000e+05
-3.226330000000000000e+05
-3.213220000000000000e+05
-3.175930000000000000e+05
-3.168410000000000000e+05
-3.202810000000000000e+05
-3.228020000000000000e+05
-3.215410000000000000e+05
-3.178470000000000000e+05
-3.168870000000000000e+05
-3.203540000000000000e+05
-3.228240000000000000e+05
-3.216310000000000000e+05
-3.178440000000000000e+05
-3.167710000000000000e+05
-3.202590000000000000e+05
-3.226970000000000000e+05
-3.215790000000000000e+05
-3.179160000000000000e+05
-3.166890000000000000e+05
-3.200540000000000000e+05
-3.227170000000000000e+05
-3.216340000000000000e+05
-3.179820000000000000e+05
-3.166750000000000000e+05
-3.201120000000000000e+05
-3.227780000000000000e+05
-3.216270000000000000e+05
-3.179320000000000000e+05
-3.166270000000000000e+05
-3.200440000000000000e+05
-3.227080000000000000e+05
-3.216420000000000000e+05
-3.179120000000000000e+05
-3.166340000000000000e+05
-3.199740000000000000e+05
-3.226590000000000000e+05
-3.216370000000000000e+05
-3.179940000000000000e+05
-3.166610000000000000e+05
-3.198470000000000000e+05
-3.227540000000000000e+05
-3.218880000000000000e+05
-3.181720000000000000e+05
-3.166700000000000000e+05
-3.199060000000000000e+05
-3.226690000000000000e+05
-3.218220000000000000e+05
-3.181200000000000000e+05
-3.164570000000000000e+05
-3.197240000000000000e+05
-3.225970000000000000e+05
-3.219090000000000000e+05
-3.182470000000000000e+05
-3.165360000000000000e+05
-3.196670000000000000e+05
-3.226760000000000000e+05
-3.218610000000000000e+05
-3.182000000000000000e+05
-3.164510000000000000e+05
-3.196390000000000000e+05
-3.226650000000000000e+05
-3.220420000000000000e+05
-3.184360000000000000e+05
-3.165250000000000000e+05
-3.196990000000000000e+05
-3.226030000000000000e+05
-3.219510000000000000e+05
-3.184290000000000000e+05
-3.165470000000000000e+05
-3.195220000000000000e+05
-3.226190000000000000e+05
-3.221820000000000000e+05
-3.185950000000000000e+05
-3.165520000000000000e+05
-3.195800000000000000e+05
-3.225990000000000000e+05
-3.220760000000000000e+05
-3.185070000000000000e+05
-3.165110000000000000e+05
-3.194890000000000000e+05
-3.225590000000000000e+05
-3.221860000000000000e+05
-3.186450000000000000e+05
-3.163990000000000000e+05
-3.194240000000000000e+05
-3.225880000000000000e+05
-3.221940000000000000e+05
-3.188140000000000000e+05
-3.164820000000000000e+05
-3.193870000000000000e+05
-3.225720000000000000e+05
-3.222210000000000000e+05
-3.187230000000000000e+05
-3.164540000000000000e+05
-3.193310000000000000e+05
-3.225810000000000000e+05
-3.223810000000000000e+05
-3.189460000000000000e+05
-3.164110000000000000e+05
-3.191090000000000000e+05
-3.224320000000000000e+05
-3.224240000000000000e+05
-3.189560000000000000e+05
-3.163950000000000000e+05
-3.191360000000000000e+05
-3.224310000000000000e+05
-3.223440000000000000e+05
-3.189540000000000000e+05
-3.163780000000000000e+05
-3.190390000000000000e+05
-3.224660000000000000e+05
-3.223290000000000000e+05
-3.189740000000000000e+05
-3.165470000000000000e+05
-3.190890000000000000e+05
-3.223270000000000000e+05
-3.222370000000000000e+05
-3.189230000000000000e+05
-3.164230000000000000e+05
-3.189480000000000000e+05
-3.223530000000000000e+05
-3.225130000000000000e+05
-3.192550000000000000e+05
-3.164640000000000000e+05
-3.188900000000000000e+05
-3.222120000000000000e+05
-3.223940000000000000e+05
-3.192570000000000000e+05
-3.163700000000000000e+05
-3.188560000000000000e+05
-3.223750000000000000e+05
-3.224050000000000000e+05
-3.191720000000000000e+05
-3.164300000000000000e+05
-3.188080000000000000e+05
-3.222900000000000000e+05
-3.225710000000000000e+05
-3.193070000000000000e+05
-3.163340000000000000e+05
-3.187010000000000000e+05
-3.221860000000000000e+05
-3.226110000000000000e+05
-3.193970000000000000e+05
-3.163880000000000000e+05
-3.185940000000000000e+05
-3.219270000000000000e+05
-3.212010000000000000e+05
-3.156590000000000000e+05
-3.093110000000000000e+05
-3.087090000000000000e+05
-3.108360000000000000e+05
-3.109470000000000000e+05
-3.064950000000000000e+05
-3.016590000000000000e+05
-3.073940000000000000e+05
-3.173730000000000000e+05
-3.265790000000000000e+05
-3.271690000000000000e+05
-3.235290000000000000e+05
-3.235860000000000000e+05
-3.254410000000000000e+05
-3.249110000000000000e+05
-3.212770000000000000e+05
-3.176690000000000000e+05
-3.192850000000000000e+05
-3.227410000000000000e+05
-3.234810000000000000e+05
-3.206270000000000000e+05
-3.173930000000000000e+05
-3.192300000000000000e+05
-3.229050000000000000e+05
-3.236440000000000000e+05
-3.205620000000000000e+05
-3.175570000000000000e+05
-3.197030000000000000e+05
-3.237690000000000000e+05
-3.243720000000000000e+05
-3.215310000000000000e+05
-3.181720000000000000e+05
-3.199590000000000000e+05
-3.236560000000000000e+05
-3.245000000000000000e+05
-3.217480000000000000e+05
-3.183420000000000000e+05
-3.198640000000000000e+05
-3.236970000000000000e+05
-3.247480000000000000e+05
-3.220330000000000000e+05
-3.184490000000000000e+05
-3.199550000000000000e+05
-3.237160000000000000e+05
-3.245470000000000000e+05
-3.218640000000000000e+05
-3.184410000000000000e+05
-3.196520000000000000e+05
-3.234350000000000000e+05
-3.245130000000000000e+05
-3.218360000000000000e+05
-3.181570000000000000e+05
-3.194920000000000000e+05
-3.234440000000000000e+05
-3.245970000000000000e+05
-3.219380000000000000e+05
-3.183010000000000000e+05
-3.193130000000000000e+05
-3.232340000000000000e+05
-3.245270000000000000e+05
-3.219710000000000000e+05
-3.182820000000000000e+05
-3.193560000000000000e+05
-3.231470000000000000e+05
-3.243670000000000000e+05
-3.219070000000000000e+05
-3.182450000000000000e+05
-3.192120000000000000e+05
-3.231540000000000000e+05
-3.245060000000000000e+05
-3.219800000000000000e+05
-3.181280000000000000e+05
-3.189520000000000000e+05
-3.227920000000000000e+05
-3.242590000000000000e+05
-3.218640000000000000e+05
-3.183010000000000000e+05
-3.191460000000000000e+05
-3.229850000000000000e+05
-3.244250000000000000e+05
-3.221260000000000000e+05
-3.184270000000000000e+05
-3.191020000000000000e+05
-3.229320000000000000e+05
-3.242820000000000000e+05
-3.220510000000000000e+05
-3.181880000000000000e+05
-3.187160000000000000e+05
-3.225910000000000000e+05
-3.242970000000000000e+05
-3.223510000000000000e+05
-3.184620000000000000e+05
-3.190530000000000000e+05
-3.227610000000000000e+05
-3.243020000000000000e+05
-3.220380000000000000e+05
-3.180470000000000000e+05
-3.185480000000000000e+05
-3.224480000000000000e+05
-3.240640000000000000e+05
-3.217520000000000000e+05
-3.178830000000000000e+05
-3.180830000000000000e+05
-3.222490000000000000e+05
-3.240230000000000000e+05
-3.218860000000000000e+05
-3.181110000000000000e+05
-3.182660000000000000e+05
-3.219620000000000000e+05
-3.236220000000000000e+05
-3.215420000000000000e+05
-3.177240000000000000e+05
-3.179300000000000000e+05
-3.215910000000000000e+05
-3.233590000000000000e+05
-3.214080000000000000e+05
-3.176360000000000000e+05
-3.175750000000000000e+05
-3.212420000000000000e+05
-3.231190000000000000e+05
-3.212160000000000000e+05
-3.173130000000000000e+05
-3.171220000000000000e+05
-3.207860000000000000e+05
-3.228590000000000000e+05
-3.210560000000000000e+05
-3.172460000000000000e+05
-3.169770000000000000e+05
-3.203500000000000000e+05
-3.216520000000000000e+05
-3.192160000000000000e+05
-3.145110000000000000e+05
-3.125990000000000000e+05
-3.150450000000000000e+05
-3.189520000000000000e+05
-3.186600000000000000e+05
-3.135390000000000000e+05
-3.133830000000000000e+05
-3.170720000000000000e+05
-3.207600000000000000e+05
-3.203910000000000000e+05
-3.122670000000000000e+05
-3.061440000000000000e+05
-3.091240000000000000e+05
-3.144440000000000000e+05
-3.120790000000000000e+05
-3.083580000000000000e+05
-3.102680000000000000e+05
-3.105580000000000000e+05
-3.114610000000000000e+05
-3.092430000000000000e+05
-3.077500000000000000e+05
-3.117960000000000000e+05
-3.186110000000000000e+05
-3.238160000000000000e+05
-3.202000000000000000e+05
-3.108720000000000000e+05
-3.118570000000000000e+05
-3.189070000000000000e+05
-3.171010000000000000e+05
-3.127640000000000000e+05
-3.072400000000000000e+05
-3.089660000000000000e+05
-3.106970000000000000e+05
-3.054840000000000000e+05
-3.019700000000000000e+05
-3.052360000000000000e+05
-3.065620000000000000e+05
-3.121690000000000000e+05
-3.065060000000000000e+05
-3.023340000000000000e+05
-2.986720000000000000e+05
-2.972620000000000000e+05
-3.041470000000000000e+05
-3.054310000000000000e+05
-3.050310000000000000e+05
-2.956510000000000000e+05
-3.010360000000000000e+05
-3.092590000000000000e+05
-3.093700000000000000e+05
-3.000910000000000000e+05
-2.875410000000000000e+05
-2.947670000000000000e+05
-3.076380000000000000e+05
-3.068460000000000000e+05
-2.941590000000000000e+05
-2.845970000000000000e+05
-2.901260000000000000e+05
-3.044940000000000000e+05
-3.098530000000000000e+05
-3.066560000000000000e+05
-2.931110000000000000e+05
-2.903920000000000000e+05
-2.932820000000000000e+05
-3.013560000000000000e+05
-3.031690000000000000e+05
-2.953060000000000000e+05
-2.887310000000000000e+05
-2.953190000000000000e+05
-3.031570000000000000e+05
-3.065890000000000000e+05
-3.009690000000000000e+05
-2.922190000000000000e+05
-2.941690000000000000e+05
-2.866840000000000000e+05
-2.903610000000000000e+05
-2.965460000000000000e+05
-2.982240000000000000e+05
-2.963670000000000000e+05
-3.021990000000000000e+05
-3.060510000000000000e+05
-2.948660000000000000e+05
-2.837400000000000000e+05
-2.873840000000000000e+05
-3.007760000000000000e+05
-3.027050000000000000e+05
-2.983710000000000000e+05
-2.912170000000000000e+05
-2.897610000000000000e+05
-2.924610000000000000e+05
-3.012420000000000000e+05
-2.987960000000000000e+05
-2.943280000000000000e+05
-2.936010000000000000e+05
-2.935570000000000000e+05
-2.875540000000000000e+05
-2.852820000000000000e+05
-2.941890000000000000e+05
-3.028790000000000000e+05
-3.026980000000000000e+05
-2.885280000000000000e+05
-2.815710000000000000e+05
-2.933920000000000000e+05
-3.070380000000000000e+05
-3.053940000000000000e+05
-2.987850000000000000e+05
-2.893440000000000000e+05
-2.862650000000000000e+05
-2.853400000000000000e+05
-2.879670000000000000e+05
-2.990640000000000000e+05
-3.030300000000000000e+05
-2.993000000000000000e+05
-2.970740000000000000e+05
-2.878830000000000000e+05
-2.908910000000000000e+05
-3.024260000000000000e+05
-2.927710000000000000e+05
-2.922520000000000000e+05
-2.928790000000000000e+05
-2.910920000000000000e+05
-2.957430000000000000e+05
-2.865570000000000000e+05
-2.990480000000000000e+05
-3.093430000000000000e+05
-3.068660000000000000e+05
-2.989770000000000000e+05
-2.875300000000000000e+05
-2.837580000000000000e+05
-2.975160000000000000e+05
-2.962790000000000000e+05
-2.856170000000000000e+05
-2.747200000000000000e+05
-2.893790000000000000e+05
-3.091490000000000000e+05
-3.098850000000000000e+05
-2.976720000000000000e+05
-2.839620000000000000e+05
-2.920750000000000000e+05
-3.061380000000000000e+05
-3.050320000000000000e+05
-2.852660000000000000e+05
-2.884040000000000000e+05
-2.968100000000000000e+05
-2.926420000000000000e+05
-2.996450000000000000e+05
-2.992080000000000000e+05
-2.923610000000000000e+05
-2.892440000000000000e+05
-3.013640000000000000e+05
-3.028190000000000000e+05
-2.923470000000000000e+05
-2.924290000000000000e+05
-2.935570000000000000e+05
-2.952840000000000000e+05
-2.991000000000000000e+05
-2.872080000000000000e+05
-2.807730000000000000e+05
-2.921560000000000000e+05
-3.034800000000000000e+05
-3.045370000000000000e+05
-2.972090000000000000e+05
-2.869780000000000000e+05
-2.928580000000000000e+05
-3.071210000000000000e+05
-3.028660000000000000e+05
-2.856490000000000000e+05
-2.793280000000000000e+05
-2.928300000000000000e+05
-2.944330000000000000e+05
-3.031870000000000000e+05
-3.006510000000000000e+05
-2.922140000000000000e+05
-2.898760000000000000e+05
-3.051890000000000000e+05
-2.965320000000000000e+05
-2.908490000000000000e+05
-2.947420000000000000e+05
-2.894180000000000000e+05
-2.979140000000000000e+05
-3.055890000000000000e+05
-3.031460000000000000e+05
-2.849230000000000000e+05
-2.933040000000000000e+05
-3.082970000000000000e+05
-3.000680000000000000e+05
-2.928410000000000000e+05
-2.956950000000000000e+05
-3.024820000000000000e+05
-3.041220000000000000e+05
-3.049180000000000000e+05
-2.969920000000000000e+05
-2.956740000000000000e+05
-2.934450000000000000e+05
-3.022010000000000000e+05
-3.018680000000000000e+05
-2.967720000000000000e+05
-2.981820000000000000e+05
-2.986670000000000000e+05
-3.010860000000000000e+05
-3.038510000000000000e+05
-2.992190000000000000e+05
-2.959640000000000000e+05
-3.002380000000000000e+05
-3.029160000000000000e+05
-3.016530000000000000e+05
-2.998170000000000000e+05
-2.975060000000000000e+05
-2.989710000000000000e+05
-3.020730000000000000e+05
-3.013870000000000000e+05
-2.981240000000000000e+05
-2.950650000000000000e+05
-2.981470000000000000e+05
-3.031850000000000000e+05
-3.049800000000000000e+05
-3.027260000000000000e+05
-2.975110000000000000e+05
-2.982940000000000000e+05
-3.026590000000000000e+05
-3.052230000000000000e+05
-3.034560000000000000e+05
-2.996110000000000000e+05
-3.009450000000000000e+05
-3.055390000000000000e+05
-3.068090000000000000e+05
-3.038160000000000000e+05
-3.002070000000000000e+05
-3.020130000000000000e+05
-3.058230000000000000e+05
-3.074160000000000000e+05
-3.048620000000000000e+05
-3.012250000000000000e+05
-3.027120000000000000e+05
-3.065840000000000000e+05
-3.079050000000000000e+05
-3.050360000000000000e+05
-3.014190000000000000e+05
-3.033140000000000000e+05
-3.073370000000000000e+05
-3.081450000000000000e+05
-3.058490000000000000e+05
-3.022540000000000000e+05
-3.036060000000000000e+05
-3.076930000000000000e+05
-3.090710000000000000e+05
-3.062670000000000000e+05
-3.026450000000000000e+05
-3.043220000000000000e+05
-3.084360000000000000e+05
-3.099260000000000000e+05
-3.073020000000000000e+05
-3.033110000000000000e+05
-3.046910000000000000e+05
-3.088990000000000000e+05
-3.100760000000000000e+05
-3.071960000000000000e+05
-3.039400000000000000e+05
-3.055170000000000000e+05
-3.095420000000000000e+05
-3.108890000000000000e+05
-3.083600000000000000e+05
-3.050160000000000000e+05
-3.065410000000000000e+05
-3.106210000000000000e+05
-3.119490000000000000e+05
-3.094320000000000000e+05
-3.058460000000000000e+05
-3.065790000000000000e+05
-3.107110000000000000e+05
-3.123430000000000000e+05
-3.097980000000000000e+05
-3.059040000000000000e+05
-3.066810000000000000e+05
-3.107420000000000000e+05
-3.122060000000000000e+05
-3.095040000000000000e+05
-3.052070000000000000e+05
-3.059730000000000000e+05
-3.102090000000000000e+05
-3.118860000000000000e+05
-3.092280000000000000e+05
-3.050200000000000000e+05
-3.057070000000000000e+05
-3.096470000000000000e+05
-3.110030000000000000e+05
-3.087490000000000000e+05
-3.045440000000000000e+05
-3.048070000000000000e+05
-3.086790000000000000e+05
-3.104160000000000000e+05
-3.081160000000000000e+05
-3.041040000000000000e+05
-3.045760000000000000e+05
-3.086040000000000000e+05
-3.103820000000000000e+05
-3.080230000000000000e+05
-3.041350000000000000e+05
-3.044010000000000000e+05
-3.084060000000000000e+05
-3.103540000000000000e+05
-3.082760000000000000e+05
-3.041100000000000000e+05
-3.043750000000000000e+05
-3.083470000000000000e+05
-3.101410000000000000e+05
-3.081260000000000000e+05
-3.042160000000000000e+05
-3.041520000000000000e+05
-3.083570000000000000e+05
-3.105110000000000000e+05
-3.084510000000000000e+05
-3.044670000000000000e+05
-3.043820000000000000e+05
-3.085490000000000000e+05
-3.108440000000000000e+05
-3.087970000000000000e+05
-3.046230000000000000e+05
-3.044740000000000000e+05
-3.086100000000000000e+05
-3.106870000000000000e+05
-3.087160000000000000e+05
-3.046180000000000000e+05
-3.043590000000000000e+05
-3.086280000000000000e+05
-3.108780000000000000e+05
-3.091070000000000000e+05
-3.049030000000000000e+05
-3.043610000000000000e+05
-3.084070000000000000e+05
-3.110640000000000000e+05
-3.093460000000000000e+05
-3.053720000000000000e+05
-3.047960000000000000e+05
-3.087570000000000000e+05
-3.110680000000000000e+05
-3.094090000000000000e+05
-3.054350000000000000e+05
-3.047940000000000000e+05
-3.087060000000000000e+05
-3.109430000000000000e+05
-3.092520000000000000e+05
-3.055620000000000000e+05
-3.050240000000000000e+05
-3.087430000000000000e+05
-3.111110000000000000e+05
-3.095290000000000000e+05
-3.055570000000000000e+05
-3.049870000000000000e+05
-3.087980000000000000e+05
-3.111840000000000000e+05
-3.097540000000000000e+05
-3.058970000000000000e+05
-3.049660000000000000e+05
-3.084880000000000000e+05
-3.110350000000000000e+05
-3.098190000000000000e+05
-3.061050000000000000e+05
-3.051260000000000000e+05
-3.087040000000000000e+05
-3.113190000000000000e+05
-3.098950000000000000e+05
-3.060000000000000000e+05
-3.050250000000000000e+05
-3.087260000000000000e+05
-3.113800000000000000e+05
-3.101710000000000000e+05
-3.064010000000000000e+05
-3.051790000000000000e+05
-3.088610000000000000e+05
-3.116510000000000000e+05
-3.105170000000000000e+05
-3.066900000000000000e+05
-3.053320000000000000e+05
-3.087310000000000000e+05
-3.115560000000000000e+05
-3.102690000000000000e+05
-3.061080000000000000e+05
-3.045200000000000000e+05
-3.077640000000000000e+05
-3.105870000000000000e+05
-3.096520000000000000e+05
-3.061310000000000000e+05
-3.053510000000000000e+05
-3.097010000000000000e+05
-3.128990000000000000e+05
-3.117480000000000000e+05
-3.077820000000000000e+05
-3.059890000000000000e+05
-3.091490000000000000e+05
-3.117860000000000000e+05
-3.108470000000000000e+05
-3.070690000000000000e+05
-3.052800000000000000e+05
-3.086310000000000000e+05
-3.115920000000000000e+05
-3.107790000000000000e+05
-3.069360000000000000e+05
-3.052050000000000000e+05
-3.087340000000000000e+05
-3.117390000000000000e+05
-3.107770000000000000e+05
-3.069940000000000000e+05
-3.053530000000000000e+05
-3.088130000000000000e+05
-3.117890000000000000e+05
-3.109460000000000000e+05
-3.071410000000000000e+05
-3.055120000000000000e+05
-3.086560000000000000e+05
-3.115970000000000000e+05
-3.108660000000000000e+05
-3.072970000000000000e+05
-3.053770000000000000e+05
-3.084770000000000000e+05
-3.115740000000000000e+05
-3.112040000000000000e+05
-3.075000000000000000e+05
-3.054890000000000000e+05
-3.087290000000000000e+05
-3.117730000000000000e+05
-3.111480000000000000e+05
-3.073400000000000000e+05
-3.053860000000000000e+05
-3.083610000000000000e+05
-3.116860000000000000e+05
-3.112960000000000000e+05
-3.075920000000000000e+05
-3.054160000000000000e+05
-3.086340000000000000e+05
-3.117600000000000000e+05
-3.112460000000000000e+05
-3.075640000000000000e+05
-3.053660000000000000e+05
-3.084630000000000000e+05
-3.117740000000000000e+05
-3.113570000000000000e+05
-3.076120000000000000e+05
-3.052330000000000000e+05
-3.084160000000000000e+05
-3.116760000000000000e+05
-3.113540000000000000e+05
-3.075920000000000000e+05
-3.051050000000000000e+05
-3.082260000000000000e+05
-3.117310000000000000e+05
-3.112360000000000000e+05
-3.076540000000000000e+05
-3.052320000000000000e+05
-3.081650000000000000e+05
-3.118660000000000000e+05
-3.114790000000000000e+05
-3.077870000000000000e+05
-3.053720000000000000e+05
-3.082050000000000000e+05
-3.116770000000000000e+05
-3.115500000000000000e+05
-3.077660000000000000e+05
-3.051470000000000000e+05
-3.082100000000000000e+05
-3.117560000000000000e+05
-3.116120000000000000e+05
-3.078970000000000000e+05
-3.051000000000000000e+05
-3.080120000000000000e+05
-3.114840000000000000e+05
-3.115770000000000000e+05
-3.079600000000000000e+05
-3.052250000000000000e+05
-3.081060000000000000e+05
-3.118340000000000000e+05
-3.118500000000000000e+05
-3.082040000000000000e+05
-3.054220000000000000e+05
-3.080740000000000000e+05
-3.116400000000000000e+05
-3.117420000000000000e+05
-3.083330000000000000e+05
-3.053020000000000000e+05
-3.078370000000000000e+05
-3.115870000000000000e+05
-3.115620000000000000e+05
-3.080850000000000000e+05
-3.053760000000000000e+05
-3.080180000000000000e+05
-3.117770000000000000e+05
-3.119510000000000000e+05
-3.086120000000000000e+05
-3.054010000000000000e+05
-3.077220000000000000e+05
-3.116550000000000000e+05
-3.120740000000000000e+05
-3.086760000000000000e+05
-3.055510000000000000e+05
-3.078210000000000000e+05
-3.114680000000000000e+05
-3.119140000000000000e+05
-3.086860000000000000e+05
-3.053660000000000000e+05
-3.077740000000000000e+05
-3.114690000000000000e+05
-3.119650000000000000e+05
-3.088110000000000000e+05
-3.055420000000000000e+05
-3.076740000000000000e+05
-3.113510000000000000e+05
-3.119150000000000000e+05
-3.087160000000000000e+05
-3.055120000000000000e+05
-3.075960000000000000e+05
-3.113970000000000000e+05
-3.119560000000000000e+05
-3.088490000000000000e+05
-3.056190000000000000e+05
-3.076010000000000000e+05
-3.112470000000000000e+05
-3.118280000000000000e+05
-3.089590000000000000e+05
-3.057870000000000000e+05
-3.076120000000000000e+05
-3.114200000000000000e+05
-3.122220000000000000e+05
-3.090960000000000000e+05
-3.057390000000000000e+05
-3.075500000000000000e+05
-3.113670000000000000e+05
-3.123500000000000000e+05
-3.092520000000000000e+05
-3.058240000000000000e+05
-3.076670000000000000e+05
-3.115830000000000000e+05
-3.123260000000000000e+05
-3.092760000000000000e+05
-3.058580000000000000e+05
-3.076240000000000000e+05
-3.113320000000000000e+05
-3.124090000000000000e+05
-3.096310000000000000e+05
-3.059560000000000000e+05
-3.074970000000000000e+05
-3.114060000000000000e+05
-3.126690000000000000e+05
-3.099030000000000000e+05
-3.061480000000000000e+05
-3.075010000000000000e+05
-3.111410000000000000e+05
-3.119760000000000000e+05
-3.089290000000000000e+05
-3.052020000000000000e+05
-3.065660000000000000e+05
-3.106110000000000000e+05
-3.120340000000000000e+05
-3.099360000000000000e+05
-3.074840000000000000e+05
-3.089470000000000000e+05
-3.125510000000000000e+05
-3.136270000000000000e+05
-3.108600000000000000e+05
-3.067720000000000000e+05
-3.077070000000000000e+05
-3.116860000000000000e+05
-3.129520000000000000e+05
-3.104020000000000000e+05
-3.067410000000000000e+05
-3.078200000000000000e+05
-3.116200000000000000e+05
-3.131870000000000000e+05
-3.106690000000000000e+05
-3.069120000000000000e+05
-3.079910000000000000e+05
-3.119730000000000000e+05
-3.134110000000000000e+05
-3.108330000000000000e+05
-3.071110000000000000e+05
-3.080980000000000000e+05
-3.121110000000000000e+05
-3.135860000000000000e+05
-3.111040000000000000e+05
-3.072760000000000000e+05
-3.081860000000000000e+05
-3.122760000000000000e+05
-3.136860000000000000e+05
-3.111470000000000000e+05
-3.075200000000000000e+05
-3.083580000000000000e+05
-3.122710000000000000e+05
-3.138740000000000000e+05
-3.116020000000000000e+05
-3.077290000000000000e+05
-3.084310000000000000e+05
-3.124960000000000000e+05
-3.142180000000000000e+05
-3.119820000000000000e+05
-3.081200000000000000e+05
-3.086660000000000000e+05
-3.126190000000000000e+05
-3.143150000000000000e+05
-3.121500000000000000e+05
-3.083570000000000000e+05
-3.087490000000000000e+05
-3.129560000000000000e+05
-3.146880000000000000e+05
-3.124590000000000000e+05
-3.088820000000000000e+05
-3.092910000000000000e+05
-3.131240000000000000e+05
-3.149760000000000000e+05
-3.128200000000000000e+05
-3.089080000000000000e+05
-3.092930000000000000e+05
-3.132890000000000000e+05
-3.151690000000000000e+05
-3.131490000000000000e+05
-3.090940000000000000e+05
-3.093120000000000000e+05
-3.134860000000000000e+05
-3.156150000000000000e+05
-3.136120000000000000e+05
-3.097220000000000000e+05
-3.098380000000000000e+05
-3.137140000000000000e+05
-3.158160000000000000e+05
-3.139360000000000000e+05
-3.099300000000000000e+05
-3.100440000000000000e+05
-3.141600000000000000e+05
-3.161620000000000000e+05
-3.142160000000000000e+05
-3.104350000000000000e+05
-3.105190000000000000e+05
-3.143980000000000000e+05
-3.166370000000000000e+05
-3.146750000000000000e+05
-3.107450000000000000e+05
-3.106210000000000000e+05
-3.146120000000000000e+05
-3.168880000000000000e+05
-3.150790000000000000e+05
-3.111230000000000000e+05
-3.108850000000000000e+05
-3.149430000000000000e+05
-3.173540000000000000e+05
-3.155440000000000000e+05
-3.116060000000000000e+05
-3.112830000000000000e+05
-3.152390000000000000e+05
-3.174590000000000000e+05
-3.156520000000000000e+05
-3.120710000000000000e+05
-3.119190000000000000e+05
-3.156810000000000000e+05
-3.179690000000000000e+05
-3.163840000000000000e+05
-3.124510000000000000e+05
-3.118890000000000000e+05
-3.158130000000000000e+05
-3.181920000000000000e+05
-3.167460000000000000e+05
-3.128590000000000000e+05
-3.121450000000000000e+05
-3.158840000000000000e+05
-3.184350000000000000e+05
-3.171360000000000000e+05
-3.132960000000000000e+05
-3.125890000000000000e+05
-3.163660000000000000e+05
-3.189110000000000000e+05
-3.174480000000000000e+05
-3.134720000000000000e+05
-3.127450000000000000e+05
-3.166170000000000000e+05
-3.194170000000000000e+05
-3.180390000000000000e+05
-3.140230000000000000e+05
-3.130870000000000000e+05
-3.168660000000000000e+05
-3.197080000000000000e+05
-3.182590000000000000e+05
-3.144320000000000000e+05
-3.136220000000000000e+05
-3.173010000000000000e+05
-3.199550000000000000e+05
-3.186870000000000000e+05
-3.149510000000000000e+05
-3.139360000000000000e+05
-3.175160000000000000e+05
-3.203760000000000000e+05
-3.193120000000000000e+05
-3.153200000000000000e+05
-3.143420000000000000e+05
-3.179570000000000000e+05
-3.206610000000000000e+05
-3.196420000000000000e+05
-3.160260000000000000e+05
-3.146350000000000000e+05
-3.183220000000000000e+05
-3.213030000000000000e+05
-3.202580000000000000e+05
-3.163610000000000000e+05
-3.151960000000000000e+05
-3.186890000000000000e+05
-3.214460000000000000e+05
-3.205570000000000000e+05
-3.167940000000000000e+05
-3.154040000000000000e+05
-3.189490000000000000e+05
-3.220360000000000000e+05
-3.211790000000000000e+05
-3.173270000000000000e+05
-3.156400000000000000e+05
-3.194360000000000000e+05
-3.225600000000000000e+05
-3.214390000000000000e+05
-3.172760000000000000e+05
-3.155090000000000000e+05
-3.189740000000000000e+05
-3.216950000000000000e+05
-3.208320000000000000e+05
-3.172770000000000000e+05
-3.162260000000000000e+05
-3.204590000000000000e+05
-3.242660000000000000e+05
-3.236500000000000000e+05
-3.198530000000000000e+05
-3.178060000000000000e+05
-3.208520000000000000e+05
-3.237640000000000000e+05
-3.231160000000000000e+05
-3.193220000000000000e+05
-3.173930000000000000e+05
-3.204890000000000000e+05
-3.238090000000000000e+05
-3.233060000000000000e+05
-3.196060000000000000e+05
-3.174790000000000000e+05
-3.206810000000000000e+05
-3.241870000000000000e+05
-3.238490000000000000e+05
-3.200930000000000000e+05
-3.179760000000000000e+05
-3.211970000000000000e+05
-3.245220000000000000e+05
-3.242600000000000000e+05
-3.205100000000000000e+05
-3.182670000000000000e+05
-3.215980000000000000e+05
-3.249850000000000000e+05
-3.245590000000000000e+05
-3.208660000000000000e+05
-3.187660000000000000e+05
-3.219640000000000000e+05
-3.254230000000000000e+05
-3.250980000000000000e+05
-3.215540000000000000e+05
-3.192510000000000000e+05
-3.222230000000000000e+05
-3.255390000000000000e+05
-3.254410000000000000e+05
-3.218740000000000000e+05
-3.195350000000000000e+05
-3.226630000000000000e+05
-3.260540000000000000e+05
-3.259440000000000000e+05
-3.223150000000000000e+05
-3.198340000000000000e+05
-3.227770000000000000e+05
-3.263920000000000000e+05
-3.264070000000000000e+05
-3.229570000000000000e+05
-3.203120000000000000e+05
-3.232440000000000000e+05
-3.267520000000000000e+05
-3.266560000000000000e+05
-3.232120000000000000e+05
-3.205510000000000000e+05
-3.234390000000000000e+05
-3.269810000000000000e+05
-3.269670000000000000e+05
-3.236390000000000000e+05
-3.209840000000000000e+05
-3.236700000000000000e+05
-3.272710000000000000e+05
-3.273980000000000000e+05
-3.238770000000000000e+05
-3.212520000000000000e+05
-3.239670000000000000e+05
-3.274080000000000000e+05
-3.276030000000000000e+05
-3.246280000000000000e+05
-3.217240000000000000e+05
-3.243610000000000000e+05
-3.280570000000000000e+05
-3.283340000000000000e+05
-3.250010000000000000e+05
-3.221600000000000000e+05
-3.246370000000000000e+05
-3.282240000000000000e+05
-3.287240000000000000e+05
-3.253870000000000000e+05
-3.222940000000000000e+05
-3.248630000000000000e+05
-3.285760000000000000e+05
-3.289640000000000000e+05
-3.256950000000000000e+05
-3.227970000000000000e+05
-3.252740000000000000e+05
-3.288890000000000000e+05
-3.291990000000000000e+05
-3.260280000000000000e+05
-3.231300000000000000e+05
-3.255660000000000000e+05
-3.291490000000000000e+05
-3.296110000000000000e+05
-3.267000000000000000e+05
-3.234650000000000000e+05
-3.256090000000000000e+05
-3.293360000000000000e+05
-3.299310000000000000e+05
-3.269390000000000000e+05
-3.236340000000000000e+05
-3.257830000000000000e+05
-3.298730000000000000e+05
-3.302350000000000000e+05
-3.272610000000000000e+05
-3.240740000000000000e+05
-3.259020000000000000e+05
-3.298470000000000000e+05
-3.307090000000000000e+05
-3.275780000000000000e+05
-3.243080000000000000e+05
-3.262850000000000000e+05
-3.303020000000000000e+05
-3.310420000000000000e+05
-3.278650000000000000e+05
-3.245540000000000000e+05
-3.265320000000000000e+05
-3.303090000000000000e+05
-3.312150000000000000e+05
-3.281460000000000000e+05
-3.246320000000000000e+05
-3.266920000000000000e+05
-3.307090000000000000e+05
-3.316110000000000000e+05
-3.286350000000000000e+05
-3.250980000000000000e+05
-3.268310000000000000e+05
-3.307180000000000000e+05
-3.317360000000000000e+05
-3.287560000000000000e+05
-3.251690000000000000e+05
-3.271330000000000000e+05
-3.311510000000000000e+05
-3.319140000000000000e+05
-3.290290000000000000e+05
-3.257790000000000000e+05
-3.274400000000000000e+05
-3.312810000000000000e+05
-3.322500000000000000e+05
-3.293430000000000000e+05
-3.258860000000000000e+05
-3.274430000000000000e+05
-3.313720000000000000e+05
-3.326690000000000000e+05
-3.298640000000000000e+05
-3.261790000000000000e+05
-3.275770000000000000e+05
-3.317410000000000000e+05
-3.329710000000000000e+05
-3.301190000000000000e+05
-3.263840000000000000e+05
-3.277700000000000000e+05
-3.318500000000000000e+05
-3.331060000000000000e+05
-3.303640000000000000e+05
-3.266460000000000000e+05
-3.278740000000000000e+05
-3.319920000000000000e+05
-3.334510000000000000e+05
-3.308240000000000000e+05
-3.269170000000000000e+05
-3.278510000000000000e+05
-3.314720000000000000e+05
-3.327460000000000000e+05
-3.300440000000000000e+05
-3.259260000000000000e+05
-3.271240000000000000e+05
-3.315410000000000000e+05
-3.335550000000000000e+05
-3.317110000000000000e+05
-3.284850000000000000e+05
-3.295990000000000000e+05
-3.332720000000000000e+05
-3.345910000000000000e+05
-3.319440000000000000e+05
-3.278960000000000000e+05
-3.285010000000000000e+05
-3.323160000000000000e+05
-3.338440000000000000e+05
-3.313940000000000000e+05
-3.275040000000000000e+05
-3.283220000000000000e+05
-3.327760000000000000e+05
-3.342370000000000000e+05
-3.317810000000000000e+05
-3.279390000000000000e+05
-3.286090000000000000e+05
-3.325440000000000000e+05
-3.342260000000000000e+05
-3.321010000000000000e+05
-3.281900000000000000e+05
-3.287500000000000000e+05
-3.328290000000000000e+05
-3.345670000000000000e+05
-3.322420000000000000e+05
-3.283480000000000000e+05
-3.287910000000000000e+05
-3.329070000000000000e+05
-3.346380000000000000e+05
-3.323550000000000000e+05
-3.284590000000000000e+05
-3.288470000000000000e+05
-3.327310000000000000e+05
-3.347640000000000000e+05
-3.325950000000000000e+05
-3.287260000000000000e+05
-3.289480000000000000e+05
-3.330460000000000000e+05
-3.349460000000000000e+05
-3.330050000000000000e+05
-3.289910000000000000e+05
-3.289810000000000000e+05
-3.329640000000000000e+05
-3.352950000000000000e+05
-3.331170000000000000e+05
-3.290870000000000000e+05
-3.291840000000000000e+05
-3.331210000000000000e+05
-3.349860000000000000e+05
-3.329970000000000000e+05
-3.291810000000000000e+05
-3.290680000000000000e+05
-3.329710000000000000e+05
-3.352210000000000000e+05
-3.333040000000000000e+05
-3.290390000000000000e+05
-3.289870000000000000e+05
-3.331420000000000000e+05
-3.354020000000000000e+05
-3.335270000000000000e+05
-3.295110000000000000e+05
-3.291560000000000000e+05
-3.330690000000000000e+05
-3.353130000000000000e+05
-3.334090000000000000e+05
-3.294760000000000000e+05
-3.290980000000000000e+05
-3.330520000000000000e+05
-3.354900000000000000e+05
-3.337010000000000000e+05
-3.296960000000000000e+05
-3.292960000000000000e+05
-3.329920000000000000e+05
-3.354610000000000000e+05
-3.338990000000000000e+05
-3.297640000000000000e+05
-3.293220000000000000e+05
-3.331090000000000000e+05
-3.354340000000000000e+05
-3.338760000000000000e+05
-3.300270000000000000e+05
-3.294790000000000000e+05
-3.333310000000000000e+05
-3.357470000000000000e+05
-3.340520000000000000e+05
-3.299620000000000000e+05
-3.293710000000000000e+05
-3.331540000000000000e+05
-3.356290000000000000e+05
-3.341230000000000000e+05
-3.301070000000000000e+05
-3.294170000000000000e+05
-3.331700000000000000e+05
-3.355620000000000000e+05
-3.302170000000000000e+05
-3.294770000000000000e+05
-3.333170000000000000e+05
-3.357810000000000000e+05
-3.342840000000000000e+05
-3.302340000000000000e+05
-3.291310000000000000e+05
-3.328020000000000000e+05
-3.356400000000000000e+05
-3.343230000000000000e+05
-3.302230000000000000e+05
-3.292170000000000000e+05
-3.329360000000000000e+05
-3.357130000000000000e+05
-3.343390000000000000e+05
-3.303960000000000000e+05
-3.292160000000000000e+05
-3.329070000000000000e+05
-3.356770000000000000e+05
-3.344610000000000000e+05
-3.304890000000000000e+05
-3.292190000000000000e+05
-3.327760000000000000e+05
-3.355740000000000000e+05
-3.345010000000000000e+05
-3.307030000000000000e+05
-3.292670000000000000e+05
-3.327780000000000000e+05
-3.356820000000000000e+05
-3.346530000000000000e+05
-3.306840000000000000e+05
-3.291320000000000000e+05
-3.327340000000000000e+05
-3.357240000000000000e+05
-3.347190000000000000e+05
-3.308150000000000000e+05
-3.292910000000000000e+05
-3.327690000000000000e+05
-3.356470000000000000e+05
-3.345710000000000000e+05
-3.306120000000000000e+05
-3.290070000000000000e+05
-3.326260000000000000e+05
-3.356170000000000000e+05
-3.344990000000000000e+05
-3.306920000000000000e+05
-3.290690000000000000e+05
-3.325620000000000000e+05
-3.356870000000000000e+05
-3.346170000000000000e+05
-3.306760000000000000e+05
-3.291340000000000000e+05
-3.324600000000000000e+05
-3.355110000000000000e+05
-3.347920000000000000e+05
-3.308760000000000000e+05
-3.289310000000000000e+05
-3.322030000000000000e+05
-3.353920000000000000e+05
-3.345920000000000000e+05
-3.308220000000000000e+05
-3.290970000000000000e+05
-3.323020000000000000e+05
-3.353510000000000000e+05
-3.346190000000000000e+05
-3.304960000000000000e+05
-3.281460000000000000e+05
-3.313270000000000000e+05
-3.344310000000000000e+05
-3.336140000000000000e+05
-3.298250000000000000e+05
-3.281440000000000000e+05
-3.320890000000000000e+05
-3.361670000000000000e+05
-3.359400000000000000e+05
-3.321020000000000000e+05
-3.294490000000000000e+05
-3.321690000000000000e+05
-3.354410000000000000e+05
-3.348260000000000000e+05
-3.307970000000000000e+05
-3.282920000000000000e+05
-3.314680000000000000e+05
-3.349300000000000000e+05
-3.345380000000000000e+05
-3.306580000000000000e+05
-3.283370000000000000e+05
-3.313800000000000000e+05
-3.347720000000000000e+05
-3.345620000000000000e+05
-3.307540000000000000e+05
-3.282740000000000000e+05
-3.314170000000000000e+05
-3.347250000000000000e+05
-3.344120000000000000e+05
-3.307870000000000000e+05
-3.283840000000000000e+05
-3.312070000000000000e+05
-3.345590000000000000e+05
-3.343990000000000000e+05
-3.307310000000000000e+05
-3.281770000000000000e+05
-3.310290000000000000e+05
-3.344990000000000000e+05
-3.341670000000000000e+05
-3.305640000000000000e+05
-3.280750000000000000e+05
-3.307270000000000000e+05
-3.344140000000000000e+05
-3.344390000000000000e+05
-3.307590000000000000e+05
-3.280160000000000000e+05
-3.306770000000000000e+05
-3.341190000000000000e+05
-3.341810000000000000e+05
-3.306470000000000000e+05
-3.279830000000000000e+05
-3.305790000000000000e+05
-3.339960000000000000e+05
-3.339710000000000000e+05
-3.306820000000000000e+05
-3.278170000000000000e+05
-3.302810000000000000e+05
-3.338500000000000000e+05
-3.339990000000000000e+05
-3.305860000000000000e+05
-3.276430000000000000e+05
-3.299380000000000000e+05
-3.335250000000000000e+05
-3.339790000000000000e+05
-3.306360000000000000e+05
-3.275980000000000000e+05
-3.300310000000000000e+05
-3.336710000000000000e+05
-3.339290000000000000e+05
-3.305550000000000000e+05
-3.274710000000000000e+05
-3.297550000000000000e+05
-3.333110000000000000e+05
-3.336690000000000000e+05
-3.304360000000000000e+05
-3.273360000000000000e+05
-3.297030000000000000e+05
-3.332190000000000000e+05
-3.337560000000000000e+05
-3.304460000000000000e+05
-3.273100000000000000e+05
-3.293840000000000000e+05
-3.332170000000000000e+05
-3.334730000000000000e+05
-3.303260000000000000e+05
-3.272410000000000000e+05
-3.292470000000000000e+05
-3.330250000000000000e+05
-3.334750000000000000e+05
-3.301010000000000000e+05
-3.269770000000000000e+05
-3.290910000000000000e+05
-3.327520000000000000e+05
-3.333520000000000000e+05
-3.303460000000000000e+05
-3.269250000000000000e+05
-3.288710000000000000e+05
-3.327180000000000000e+05
-3.334420000000000000e+05
-3.301890000000000000e+05
-3.266470000000000000e+05
-3.284230000000000000e+05
-3.324740000000000000e+05
-3.332330000000000000e+05
-3.301060000000000000e+05
-3.266220000000000000e+05
-3.284170000000000000e+05
-3.324240000000000000e+05
-3.331270000000000000e+05
-3.300660000000000000e+05
-3.266070000000000000e+05
-3.282440000000000000e+05
-3.320540000000000000e+05
-3.329300000000000000e+05
-3.298460000000000000e+05
-3.264900000000000000e+05
-3.280960000000000000e+05
-3.318590000000000000e+05
-3.328270000000000000e+05
-3.298810000000000000e+05
-3.262230000000000000e+05
-3.277260000000000000e+05
-3.316430000000000000e+05
-3.326170000000000000e+05
-3.296410000000000000e+05
-3.260980000000000000e+05
-3.275440000000000000e+05
-3.313340000000000000e+05
-3.324740000000000000e+05
-3.296830000000000000e+05
-3.261060000000000000e+05
-3.273710000000000000e+05
-3.312300000000000000e+05
-3.322460000000000000e+05
-3.294790000000000000e+05
-3.258900000000000000e+05
-3.271590000000000000e+05
-3.308920000000000000e+05
-3.321290000000000000e+05
-3.293370000000000000e+05
-3.256640000000000000e+05
-3.270780000000000000e+05
-3.308220000000000000e+05
-3.320520000000000000e+05
-3.293560000000000000e+05
-3.255720000000000000e+05
-3.267870000000000000e+05
-3.305670000000000000e+05
-3.317980000000000000e+05
-3.290290000000000000e+05
-3.253630000000000000e+05
-3.264720000000000000e+05
-3.303810000000000000e+05
-3.318790000000000000e+05
-3.290990000000000000e+05
-3.253000000000000000e+05
-3.262090000000000000e+05
-3.302610000000000000e+05
-3.317570000000000000e+05
-3.291090000000000000e+05
-3.251880000000000000e+05
-3.261100000000000000e+05
-3.299070000000000000e+05
-3.315270000000000000e+05
-3.289860000000000000e+05
-3.249670000000000000e+05
-3.254690000000000000e+05
-3.290860000000000000e+05
-3.305170000000000000e+05
-3.279070000000000000e+05
-3.238610000000000000e+05
-3.243980000000000000e+05
-3.286070000000000000e+05
-3.308310000000000000e+05
-3.292720000000000000e+05
-3.259770000000000000e+05
-3.264510000000000000e+05
-3.301830000000000000e+05
-3.315420000000000000e+05
-3.288710000000000000e+05
-3.246760000000000000e+05
-3.250370000000000000e+05
-3.289360000000000000e+05
-3.307510000000000000e+05
-3.285210000000000000e+05
-3.244140000000000000e+05
-3.245910000000000000e+05
-3.287090000000000000e+05
-3.304520000000000000e+05
-3.282250000000000000e+05
-3.244380000000000000e+05
-3.245810000000000000e+05
-3.285760000000000000e+05
-3.303370000000000000e+05
-3.282290000000000000e+05
-3.242070000000000000e+05
-3.242970000000000000e+05
-3.283410000000000000e+05
-3.301460000000000000e+05
-3.279460000000000000e+05
-3.239710000000000000e+05
-3.243060000000000000e+05
-3.280480000000000000e+05
-3.299660000000000000e+05
-3.278340000000000000e+05
-3.239150000000000000e+05
-3.239800000000000000e+05
-3.277540000000000000e+05
-3.297290000000000000e+05
-3.278480000000000000e+05
-3.238550000000000000e+05
-3.237360000000000000e+05
-3.275410000000000000e+05
-3.295900000000000000e+05
-3.276610000000000000e+05
-3.237220000000000000e+05
-3.234200000000000000e+05
-3.272760000000000000e+05
-3.294710000000000000e+05
-3.274660000000000000e+05
-3.233370000000000000e+05
-3.233110000000000000e+05
-3.270680000000000000e+05
-3.292680000000000000e+05
-3.274850000000000000e+05
-3.234390000000000000e+05
-3.231430000000000000e+05
-3.267790000000000000e+05
-3.289100000000000000e+05
-3.272460000000000000e+05
-3.231400000000000000e+05
-3.227090000000000000e+05
-3.264320000000000000e+05
-3.288970000000000000e+05
-3.273050000000000000e+05
-3.231210000000000000e+05
-3.224990000000000000e+05
-3.263010000000000000e+05
-3.287740000000000000e+05
-3.270370000000000000e+05
-3.229050000000000000e+05
-3.222610000000000000e+05
-3.261690000000000000e+05
-3.284760000000000000e+05
-3.268510000000000000e+05
-3.229330000000000000e+05
-3.223210000000000000e+05
-3.261320000000000000e+05
-3.285910000000000000e+05
-3.269300000000000000e+05
-3.227570000000000000e+05
-3.220840000000000000e+05
-3.258010000000000000e+05
-3.282220000000000000e+05
-3.268790000000000000e+05
-3.229290000000000000e+05
-3.220180000000000000e+05
-3.257550000000000000e+05
-3.282320000000000000e+05
-3.268380000000000000e+05
-3.228060000000000000e+05
-3.215960000000000000e+05
-3.254370000000000000e+05
-3.280960000000000000e+05
-3.266840000000000000e+05
-3.226750000000000000e+05
-3.214740000000000000e+05
-3.252190000000000000e+05
-3.280220000000000000e+05
-3.266170000000000000e+05
-3.225320000000000000e+05
-3.213370000000000000e+05
-3.250090000000000000e+05
-3.277670000000000000e+05
-3.263660000000000000e+05
-3.224190000000000000e+05
-3.213770000000000000e+05
-3.248610000000000000e+05
-3.274920000000000000e+05
-3.263670000000000000e+05
-3.223080000000000000e+05
-3.210710000000000000e+05
-3.244910000000000000e+05
-3.271460000000000000e+05
-3.262030000000000000e+05
-3.222190000000000000e+05
-3.208960000000000000e+05
-3.244310000000000000e+05
-3.272210000000000000e+05
-3.261610000000000000e+05
-3.221580000000000000e+05
-3.204170000000000000e+05
-3.239310000000000000e+05
-3.269910000000000000e+05
-3.260320000000000000e+05
-3.220400000000000000e+05
-3.203520000000000000e+05
-3.237270000000000000e+05
-3.267090000000000000e+05
-3.258170000000000000e+05
-3.219620000000000000e+05
-3.202910000000000000e+05
-3.235980000000000000e+05
-3.265330000000000000e+05
-3.258090000000000000e+05
-3.218780000000000000e+05
-3.199670000000000000e+05
-3.233590000000000000e+05
-3.266000000000000000e+05
-3.258570000000000000e+05
-3.217720000000000000e+05
-3.197640000000000000e+05
-3.232200000000000000e+05
-3.262380000000000000e+05
-3.256160000000000000e+05
-3.216960000000000000e+05
-3.196940000000000000e+05
-3.229740000000000000e+05
-3.261030000000000000e+05
-3.253470000000000000e+05
-3.215640000000000000e+05
-3.197360000000000000e+05
-3.229520000000000000e+05
-3.260080000000000000e+05
-3.253290000000000000e+05
-3.213980000000000000e+05
-3.193460000000000000e+05
-3.224490000000000000e+05
-3.258460000000000000e+05
-3.254640000000000000e+05
-3.216190000000000000e+05
-3.192620000000000000e+05
-3.222390000000000000e+05
-3.254320000000000000e+05
-3.246520000000000000e+05
-3.208970000000000000e+05
-3.184330000000000000e+05
-3.212090000000000000e+05
-3.243210000000000000e+05
-3.239770000000000000e+05
-3.207060000000000000e+05
-3.191140000000000000e+05
-3.228520000000000000e+05
-3.263540000000000000e+05
-3.258760000000000000e+05
-3.219870000000000000e+05
-3.193380000000000000e+05
-3.218790000000000000e+05
-3.251510000000000000e+05
-3.247730000000000000e+05
-3.207910000000000000e+05
-3.184930000000000000e+05
-3.215990000000000000e+05
-3.248950000000000000e+05
-3.246390000000000000e+05
-3.209620000000000000e+05
-3.183120000000000000e+05
-3.211660000000000000e+05
-3.245730000000000000e+05
-3.245330000000000000e+05
-3.209050000000000000e+05
-3.181590000000000000e+05
-3.208720000000000000e+05
-3.243540000000000000e+05
-3.244440000000000000e+05
-3.209510000000000000e+05
-3.181280000000000000e+05
-3.206690000000000000e+05
-3.242710000000000000e+05
-3.242190000000000000e+05
-3.206260000000000000e+05
-3.179820000000000000e+05
-3.205610000000000000e+05
-3.241940000000000000e+05
-3.242170000000000000e+05
-3.206660000000000000e+05
-3.177670000000000000e+05
-3.202630000000000000e+05
-3.238560000000000000e+05
-3.239630000000000000e+05
-3.206080000000000000e+05
-3.176310000000000000e+05
-3.200520000000000000e+05
-3.236160000000000000e+05
-3.237350000000000000e+05
-3.205130000000000000e+05
-3.176080000000000000e+05
-3.198540000000000000e+05
-3.233940000000000000e+05
-3.238430000000000000e+05
-3.205010000000000000e+05
-3.173470000000000000e+05
-3.195510000000000000e+05
-3.232630000000000000e+05
-3.237410000000000000e+05
-3.205420000000000000e+05
-3.173930000000000000e+05
-3.195420000000000000e+05
-3.231020000000000000e+05
-3.235510000000000000e+05
-3.202260000000000000e+05
-3.171760000000000000e+05
-3.192360000000000000e+05
-3.228100000000000000e+05
-3.232190000000000000e+05
-3.201850000000000000e+05
-3.170290000000000000e+05
-3.190630000000000000e+05
-3.224850000000000000e+05
-3.231540000000000000e+05
-3.200110000000000000e+05
-3.165330000000000000e+05
-3.181770000000000000e+05
-3.210820000000000000e+05
-3.207530000000000000e+05
-3.166280000000000000e+05
-3.134060000000000000e+05
-3.147630000000000000e+05
-3.138520000000000000e+05
-3.101190000000000000e+05
-3.100250000000000000e+05
-3.105860000000000000e+05
-3.088160000000000000e+05
-3.069500000000000000e+05
-3.073750000000000000e+05
-3.115210000000000000e+05
-3.070580000000000000e+05
-3.026760000000000000e+05
-3.146140000000000000e+05
-3.227900000000000000e+05
-3.157960000000000000e+05
-3.124060000000000000e+05
-3.087310000000000000e+05
-3.069170000000000000e+05
-3.127340000000000000e+05
-3.190240000000000000e+05
-3.116970000000000000e+05
-3.034730000000000000e+05
-3.081450000000000000e+05
-3.135500000000000000e+05
-3.195690000000000000e+05
-3.156670000000000000e+05
-3.111020000000000000e+05
-3.141270000000000000e+05
-3.121410000000000000e+05
-3.012950000000000000e+05
-2.989010000000000000e+05
-3.054660000000000000e+05
-3.112330000000000000e+05
-3.153410000000000000e+05
-3.115390000000000000e+05
-3.017020000000000000e+05
-2.965570000000000000e+05
-2.954510000000000000e+05
-2.938330000000000000e+05
-2.952280000000000000e+05
-2.956460000000000000e+05
-2.950090000000000000e+05
-3.076970000000000000e+05
-3.062250000000000000e+05
-2.964790000000000000e+05
-2.928540000000000000e+05
-3.036340000000000000e+05
-3.102920000000000000e+05
-3.001390000000000000e+05
-2.962310000000000000e+05
-2.956470000000000000e+05
-2.940160000000000000e+05
-3.019660000000000000e+05
-3.007860000000000000e+05
-2.940160000000000000e+05
-2.900040000000000000e+05
-2.992010000000000000e+05
-3.103190000000000000e+05
-2.996040000000000000e+05
-2.960640000000000000e+05
-2.960390000000000000e+05
-2.924020000000000000e+05
-2.968870000000000000e+05
-3.011860000000000000e+05
-2.924220000000000000e+05
-2.779210000000000000e+05
-2.860190000000000000e+05
-3.062770000000000000e+05
-3.071610000000000000e+05
-2.872340000000000000e+05
-2.781630000000000000e+05
-2.953680000000000000e+05
-3.059120000000000000e+05
-3.006640000000000000e+05
-2.962830000000000000e+05
-2.896910000000000000e+05
-2.879720000000000000e+05
-2.869520000000000000e+05
-3.001290000000000000e+05
-3.045120000000000000e+05
-2.931410000000000000e+05
-2.854550000000000000e+05
-2.816730000000000000e+05
-2.881510000000000000e+05
-2.887720000000000000e+05
-3.013150000000000000e+05
-3.017390000000000000e+05
-2.952410000000000000e+05
-2.938940000000000000e+05
-2.885090000000000000e+05
-2.900640000000000000e+05
-2.817090000000000000e+05
-2.862810000000000000e+05
-2.935050000000000000e+05
-2.933060000000000000e+05
-2.936040000000000000e+05
-2.858290000000000000e+05
-2.889980000000000000e+05
-2.985220000000000000e+05
-2.917540000000000000e+05
-2.791470000000000000e+05
-2.805770000000000000e+05
-2.887630000000000000e+05
-3.077510000000000000e+05
-2.988340000000000000e+05
-2.850710000000000000e+05
-2.855800000000000000e+05
-2.870430000000000000e+05
-2.912190000000000000e+05
-2.873400000000000000e+05
-2.908340000000000000e+05
-2.945860000000000000e+05
-2.870060000000000000e+05
-2.899070000000000000e+05
-2.921370000000000000e+05
-2.755830000000000000e+05
-2.844260000000000000e+05
-2.926650000000000000e+05
-2.999410000000000000e+05
-2.920660000000000000e+05
-2.861490000000000000e+05
-2.853660000000000000e+05
-2.831830000000000000e+05
-2.907900000000000000e+05
-2.951320000000000000e+05
-2.921510000000000000e+05
-2.846170000000000000e+05
-2.824890000000000000e+05
-2.997760000000000000e+05
-2.975430000000000000e+05
-2.846510000000000000e+05
-2.802860000000000000e+05
-2.846860000000000000e+05
-2.941980000000000000e+05
-3.022060000000000000e+05
-2.950850000000000000e+05
-2.791170000000000000e+05
-2.788360000000000000e+05
-2.918780000000000000e+05
-2.884740000000000000e+05
-2.880420000000000000e+05
-2.996990000000000000e+05
-2.939440000000000000e+05
-2.888780000000000000e+05
-2.860210000000000000e+05
-2.874370000000000000e+05
-2.927520000000000000e+05
-2.893790000000000000e+05
-2.872760000000000000e+05
-2.833190000000000000e+05
-2.829820000000000000e+05
-2.960870000000000000e+05
-2.997100000000000000e+05
-2.957100000000000000e+05
-2.912610000000000000e+05
-2.846810000000000000e+05
-2.883480000000000000e+05
-2.821540000000000000e+05
-2.802340000000000000e+05
-2.894360000000000000e+05
-3.050280000000000000e+05
-2.979470000000000000e+05
-2.840570000000000000e+05
-2.816430000000000000e+05
-2.905790000000000000e+05
-2.978790000000000000e+05
-2.876310000000000000e+05
-2.926290000000000000e+05
-2.922290000000000000e+05
-2.946950000000000000e+05
-2.878930000000000000e+05
-2.845570000000000000e+05
-2.953740000000000000e+05
-2.910660000000000000e+05
-2.810490000000000000e+05
-2.783810000000000000e+05
-2.950740000000000000e+05
-3.002010000000000000e+05
-2.909890000000000000e+05
-2.851970000000000000e+05
-2.807760000000000000e+05
-2.900700000000000000e+05
-3.053860000000000000e+05
-2.924860000000000000e+05
-2.901120000000000000e+05
-2.858590000000000000e+05
-2.829920000000000000e+05
-2.809530000000000000e+05
-2.963680000000000000e+05
-2.922500000000000000e+05
-2.817720000000000000e+05
-2.954390000000000000e+05
-2.945510000000000000e+05
-2.929960000000000000e+05
-2.928880000000000000e+05
-2.892170000000000000e+05
-2.952470000000000000e+05
-2.951190000000000000e+05
-2.918660000000000000e+05
-2.883020000000000000e+05
-2.676840000000000000e+05
-2.764740000000000000e+05
-2.942090000000000000e+05
-3.018320000000000000e+05
-3.024050000000000000e+05
-2.943620000000000000e+05
-2.859970000000000000e+05
-2.911300000000000000e+05
-2.932870000000000000e+05
-2.806860000000000000e+05
-2.762840000000000000e+05
-2.904730000000000000e+05
-2.973510000000000000e+05
-3.056600000000000000e+05
-2.912950000000000000e+05
-2.811060000000000000e+05
-2.911270000000000000e+05
-2.914690000000000000e+05
-2.899670000000000000e+05
-2.984010000000000000e+05
-2.962690000000000000e+05
-2.896240000000000000e+05
-2.955860000000000000e+05
-3.022280000000000000e+05
-2.937060000000000000e+05
-2.877660000000000000e+05
-2.903610000000000000e+05
-2.963910000000000000e+05
-3.011030000000000000e+05
-2.993240000000000000e+05
-2.914240000000000000e+05
-2.866790000000000000e+05
-2.929260000000000000e+05
-2.949740000000000000e+05
-2.961520000000000000e+05
-2.926270000000000000e+05
-2.895870000000000000e+05
-2.933970000000000000e+05
-2.964530000000000000e+05
-2.990590000000000000e+05
-2.928160000000000000e+05
-2.890860000000000000e+05
-2.930780000000000000e+05
-2.958640000000000000e+05
-2.940390000000000000e+05
-2.927570000000000000e+05
-2.914940000000000000e+05
-2.944750000000000000e+05
-2.983890000000000000e+05
-2.990740000000000000e+05
-2.955160000000000000e+05
-2.924780000000000000e+05
-2.952340000000000000e+05
-2.994980000000000000e+05
-3.001010000000000000e+05
-2.976120000000000000e+05
-2.947440000000000000e+05
-2.966660000000000000e+05
-3.000660000000000000e+05
-3.028160000000000000e+05
-3.021760000000000000e+05
-2.988810000000000000e+05
-3.010510000000000000e+05
-3.061550000000000000e+05
-3.069790000000000000e+05
-3.024220000000000000e+05
-2.994190000000000000e+05
-3.039110000000000000e+05
-3.074130000000000000e+05
-3.067810000000000000e+05
-3.039210000000000000e+05
-3.011860000000000000e+05
-3.034520000000000000e+05
-3.085400000000000000e+05
-3.103390000000000000e+05
-3.060970000000000000e+05
-3.028640000000000000e+05
-3.056650000000000000e+05
-3.091640000000000000e+05
-3.102960000000000000e+05
-3.069990000000000000e+05
-3.039630000000000000e+05
-3.069660000000000000e+05
-3.106690000000000000e+05
-3.108120000000000000e+05
-3.073510000000000000e+05
-3.041370000000000000e+05
-3.068380000000000000e+05
-3.108270000000000000e+05
-3.112830000000000000e+05
-3.077570000000000000e+05
-3.049470000000000000e+05
-3.076140000000000000e+05
-3.116140000000000000e+05
-3.119390000000000000e+05
-3.085820000000000000e+05
-3.056880000000000000e+05
-3.081320000000000000e+05
-3.120610000000000000e+05
-3.125150000000000000e+05
-3.089690000000000000e+05
-3.054900000000000000e+05
-3.084170000000000000e+05
-3.122800000000000000e+05
-3.125020000000000000e+05
-3.091540000000000000e+05
-3.056200000000000000e+05
-3.078860000000000000e+05
-3.118490000000000000e+05
-3.122220000000000000e+05
-3.087120000000000000e+05
-3.053190000000000000e+05
-3.076990000000000000e+05
-3.114950000000000000e+05
-3.119370000000000000e+05
-3.083380000000000000e+05
-3.048910000000000000e+05
-3.070890000000000000e+05
-3.109140000000000000e+05
-3.115360000000000000e+05
-3.080970000000000000e+05
-3.046660000000000000e+05
-3.069220000000000000e+05
-3.109850000000000000e+05
-3.117270000000000000e+05
-3.084100000000000000e+05
-3.046820000000000000e+05
-3.070670000000000000e+05
-3.112860000000000000e+05
-3.124750000000000000e+05
-3.095980000000000000e+05
-3.056890000000000000e+05
-3.077110000000000000e+05
-3.122510000000000000e+05
-3.132430000000000000e+05
-3.100930000000000000e+05
-3.062360000000000000e+05
-3.083980000000000000e+05
-3.127870000000000000e+05
-3.138060000000000000e+05
-3.106790000000000000e+05
-3.069360000000000000e+05
-3.086920000000000000e+05
-3.130070000000000000e+05
-3.142610000000000000e+05
-3.112790000000000000e+05
-3.073970000000000000e+05
-3.092230000000000000e+05
-3.134600000000000000e+05
-3.147800000000000000e+05
-3.117640000000000000e+05
-3.078320000000000000e+05
-3.095910000000000000e+05
-3.137040000000000000e+05
-3.148870000000000000e+05
-3.120290000000000000e+05
-3.081990000000000000e+05
-3.096340000000000000e+05
-3.139290000000000000e+05
-3.151560000000000000e+05
-3.122980000000000000e+05
-3.084410000000000000e+05
-3.098020000000000000e+05
-3.139880000000000000e+05
-3.154070000000000000e+05
-3.125560000000000000e+05
-3.086940000000000000e+05
-3.099420000000000000e+05
-3.142500000000000000e+05
-3.156890000000000000e+05
-3.128200000000000000e+05
-3.090320000000000000e+05
-3.105430000000000000e+05
-3.146750000000000000e+05
-3.163460000000000000e+05
-3.136710000000000000e+05
-3.097010000000000000e+05
-3.106270000000000000e+05
-3.149400000000000000e+05
-3.166160000000000000e+05
-3.141500000000000000e+05
-3.101070000000000000e+05
-3.111510000000000000e+05
-3.153160000000000000e+05
-3.169560000000000000e+05
-3.145570000000000000e+05
-3.104540000000000000e+05
-3.112420000000000000e+05
-3.157340000000000000e+05
-3.173790000000000000e+05
-3.148590000000000000e+05
-3.104910000000000000e+05
-3.114900000000000000e+05
-3.158910000000000000e+05
-3.176300000000000000e+05
-3.152550000000000000e+05
-3.109640000000000000e+05
-3.116510000000000000e+05
-3.161420000000000000e+05
-3.179930000000000000e+05
-3.156600000000000000e+05
-3.115490000000000000e+05
-3.119720000000000000e+05
-3.161220000000000000e+05
-3.183400000000000000e+05
-3.159760000000000000e+05
-3.117940000000000000e+05
-3.122880000000000000e+05
-3.165890000000000000e+05
-3.185360000000000000e+05
-3.161490000000000000e+05
-3.121030000000000000e+05
-3.126520000000000000e+05
-3.167790000000000000e+05
-3.187170000000000000e+05
-3.166940000000000000e+05
-3.125590000000000000e+05
-3.125620000000000000e+05
-3.162670000000000000e+05
-3.181970000000000000e+05
-3.161110000000000000e+05
-3.118610000000000000e+05
-3.120210000000000000e+05
-3.165940000000000000e+05
-3.196210000000000000e+05
-3.182350000000000000e+05
-3.145280000000000000e+05
-3.144100000000000000e+05
-3.183000000000000000e+05
-3.202470000000000000e+05
-3.181210000000000000e+05
-3.137820000000000000e+05
-3.136540000000000000e+05
-3.178660000000000000e+05
-3.200860000000000000e+05
-3.180710000000000000e+05
-3.140790000000000000e+05
-3.140510000000000000e+05
-3.182010000000000000e+05
-3.206060000000000000e+05
-3.186840000000000000e+05
-3.146060000000000000e+05
-3.144990000000000000e+05
-3.185420000000000000e+05
-3.210560000000000000e+05
-3.192640000000000000e+05
-3.151270000000000000e+05
-3.148420000000000000e+05
-3.188120000000000000e+05
-3.213060000000000000e+05
-3.195360000000000000e+05
-3.154940000000000000e+05
-3.150720000000000000e+05
-3.194260000000000000e+05
-3.218560000000000000e+05
-3.200080000000000000e+05
-3.158840000000000000e+05
-3.154040000000000000e+05
-3.195070000000000000e+05
-3.219540000000000000e+05
-3.202690000000000000e+05
-3.162990000000000000e+05
-3.160290000000000000e+05
-3.197660000000000000e+05
-3.221920000000000000e+05
-3.208680000000000000e+05
-3.169440000000000000e+05
-3.161670000000000000e+05
-3.202140000000000000e+05
-3.229320000000000000e+05
-3.214190000000000000e+05
-3.173040000000000000e+05
-3.165520000000000000e+05
-3.205620000000000000e+05
-3.232280000000000000e+05
-3.219670000000000000e+05
-3.178470000000000000e+05
-3.169710000000000000e+05
-3.207910000000000000e+05
-3.235400000000000000e+05
-3.223760000000000000e+05
-3.184840000000000000e+05
-3.175740000000000000e+05
-3.212530000000000000e+05
-3.239300000000000000e+05
-3.228210000000000000e+05
-3.189460000000000000e+05
-3.179560000000000000e+05
-3.217610000000000000e+05
-3.246160000000000000e+05
-3.234230000000000000e+05
-3.193190000000000000e+05
-3.182090000000000000e+05
-3.222870000000000000e+05
-3.250740000000000000e+05
-3.239410000000000000e+05
-3.199660000000000000e+05
-3.186770000000000000e+05
-3.225190000000000000e+05
-3.255220000000000000e+05
-3.246890000000000000e+05
-3.205410000000000000e+05
-3.191080000000000000e+05
-3.229690000000000000e+05
-3.259700000000000000e+05
-3.249820000000000000e+05
-3.211040000000000000e+05
-3.196390000000000000e+05
-3.233840000000000000e+05
-3.264310000000000000e+05
-3.254420000000000000e+05
-3.218060000000000000e+05
-3.203650000000000000e+05
-3.240180000000000000e+05
-3.270540000000000000e+05
-3.262430000000000000e+05
-3.222950000000000000e+05
-3.207580000000000000e+05
-3.244980000000000000e+05
-3.276740000000000000e+05
-3.268820000000000000e+05
-3.229180000000000000e+05
-3.212020000000000000e+05
-3.247280000000000000e+05
-3.279720000000000000e+05
-3.272240000000000000e+05
-3.233990000000000000e+05
-3.218250000000000000e+05
-3.252600000000000000e+05
-3.285390000000000000e+05
-3.279200000000000000e+05
-3.238220000000000000e+05
-3.221090000000000000e+05
-3.259900000000000000e+05
-3.292690000000000000e+05
-3.286670000000000000e+05
-3.247970000000000000e+05
-3.227990000000000000e+05
-3.262970000000000000e+05
-3.296290000000000000e+05
-3.291110000000000000e+05
-3.254260000000000000e+05
-3.233710000000000000e+05
-3.267380000000000000e+05
-3.302070000000000000e+05
-3.298940000000000000e+05
-3.260990000000000000e+05
-3.239780000000000000e+05
-3.273630000000000000e+05
-3.305170000000000000e+05
-3.303270000000000000e+05
-3.267160000000000000e+05
-3.245480000000000000e+05
-3.279670000000000000e+05
-3.313410000000000000e+05
-3.311200000000000000e+05
-3.274460000000000000e+05
-3.251740000000000000e+05
-3.282410000000000000e+05
-3.317650000000000000e+05
-3.316620000000000000e+05
-3.279560000000000000e+05
-3.257300000000000000e+05
-3.289090000000000000e+05
-3.325910000000000000e+05
-3.323730000000000000e+05
-3.287410000000000000e+05
-3.264400000000000000e+05
-3.294760000000000000e+05
-3.330110000000000000e+05
-3.329340000000000000e+05
-3.293440000000000000e+05
-3.268360000000000000e+05
-3.300040000000000000e+05
-3.336360000000000000e+05
-3.336220000000000000e+05
-3.301070000000000000e+05
-3.275040000000000000e+05
-3.306660000000000000e+05
-3.344460000000000000e+05
-3.343790000000000000e+05
-3.305560000000000000e+05
-3.276410000000000000e+05
-3.304710000000000000e+05
-3.338710000000000000e+05
-3.337790000000000000e+05
-3.303560000000000000e+05
-3.281370000000000000e+05
-3.317740000000000000e+05
-3.363870000000000000e+05
-3.368850000000000000e+05
-3.331520000000000000e+05
-3.302450000000000000e+05
-3.329790000000000000e+05
-3.365220000000000000e+05
-3.364830000000000000e+05
-3.327960000000000000e+05
-3.299290000000000000e+05
-3.327190000000000000e+05
-3.365030000000000000e+05
-3.370010000000000000e+05
-3.335610000000000000e+05
-3.306310000000000000e+05
-3.333800000000000000e+05
-3.371450000000000000e+05
-3.373370000000000000e+05
-3.341070000000000000e+05
-3.313050000000000000e+05
-3.340130000000000000e+05
-3.379170000000000000e+05
-3.382970000000000000e+05
-3.348160000000000000e+05
-3.319440000000000000e+05
-3.345420000000000000e+05
-3.386860000000000000e+05
-3.390510000000000000e+05
-3.356370000000000000e+05
-3.325790000000000000e+05
-3.352180000000000000e+05
-3.393140000000000000e+05
-3.397450000000000000e+05
-3.363670000000000000e+05
-3.332640000000000000e+05
-3.358400000000000000e+05
-3.397620000000000000e+05
-3.405020000000000000e+05
-3.371040000000000000e+05
-3.337860000000000000e+05
-3.363370000000000000e+05
-3.404650000000000000e+05
-3.410720000000000000e+05
-3.378940000000000000e+05
-3.344650000000000000e+05
-3.367470000000000000e+05
-3.410680000000000000e+05
-3.419250000000000000e+05
-3.386060000000000000e+05
-3.352020000000000000e+05
-3.374700000000000000e+05
-3.416130000000000000e+05
-3.424630000000000000e+05
-3.393100000000000000e+05
-3.358190000000000000e+05
-3.380410000000000000e+05
-3.422080000000000000e+05
-3.430110000000000000e+05
-3.399560000000000000e+05
-3.364110000000000000e+05
-3.384560000000000000e+05
-3.426190000000000000e+05
-3.436540000000000000e+05
-3.405790000000000000e+05
-3.368750000000000000e+05
-3.390690000000000000e+05
-3.433740000000000000e+05
-3.443000000000000000e+05
-3.410970000000000000e+05
-3.376590000000000000e+05
-3.397310000000000000e+05
-3.439620000000000000e+05
-3.450770000000000000e+05
-3.420880000000000000e+05
-3.383920000000000000e+05
-3.401840000000000000e+05
-3.443420000000000000e+05
-3.454880000000000000e+05
-3.425240000000000000e+05
-3.389290000000000000e+05
-3.408080000000000000e+05
-3.449330000000000000e+05
-3.461610000000000000e+05
-3.433320000000000000e+05
-3.396510000000000000e+05
-3.412830000000000000e+05
-3.453410000000000000e+05
-3.465240000000000000e+05
-3.437820000000000000e+05
-3.402230000000000000e+05
-3.416470000000000000e+05
-3.459490000000000000e+05
-3.473560000000000000e+05
-3.446390000000000000e+05
-3.408540000000000000e+05
-3.421630000000000000e+05
-3.461480000000000000e+05
-3.478860000000000000e+05
-3.453790000000000000e+05
-3.414630000000000000e+05
-3.426840000000000000e+05
-3.469140000000000000e+05
-3.484820000000000000e+05
-3.458420000000000000e+05
-3.418960000000000000e+05
-3.431320000000000000e+05
-3.474160000000000000e+05
-3.489670000000000000e+05
-3.464170000000000000e+05
-3.424510000000000000e+05
-3.435710000000000000e+05
-3.477480000000000000e+05
-3.491110000000000000e+05
-3.468470000000000000e+05
-3.430810000000000000e+05
-3.440970000000000000e+05
-3.483230000000000000e+05
-3.499600000000000000e+05
-3.474720000000000000e+05
-3.434420000000000000e+05
-3.441710000000000000e+05
-3.485460000000000000e+05
-3.503160000000000000e+05
-3.481760000000000000e+05
-3.438950000000000000e+05
-3.447330000000000000e+05
-3.491200000000000000e+05
-3.510980000000000000e+05
-3.486950000000000000e+05
-3.445490000000000000e+05
-3.452070000000000000e+05
-3.493930000000000000e+05
-3.513790000000000000e+05
-3.491360000000000000e+05
-3.448640000000000000e+05
-3.453190000000000000e+05
-3.496490000000000000e+05
-3.518420000000000000e+05
-3.496850000000000000e+05
-3.454510000000000000e+05
-3.458120000000000000e+05
-3.500430000000000000e+05
-3.521830000000000000e+05
-3.500310000000000000e+05
-3.458380000000000000e+05
-3.461720000000000000e+05
-3.504220000000000000e+05
-3.525390000000000000e+05
-3.504360000000000000e+05
-3.463810000000000000e+05
-3.465900000000000000e+05
-3.508540000000000000e+05
-3.530210000000000000e+05
-3.507690000000000000e+05
-3.465870000000000000e+05
-3.468170000000000000e+05
-3.509490000000000000e+05
-3.531460000000000000e+05
-3.508420000000000000e+05
-3.463410000000000000e+05
-3.462520000000000000e+05
-3.503250000000000000e+05
-3.527730000000000000e+05
-3.513410000000000000e+05
-3.478810000000000000e+05
-3.485940000000000000e+05
-3.529930000000000000e+05
-3.551440000000000000e+05
-3.530430000000000000e+05
-3.486060000000000000e+05
-3.480460000000000000e+05
-3.519890000000000000e+05
-3.542860000000000000e+05
-3.524660000000000000e+05
-3.482600000000000000e+05
-3.480600000000000000e+05
-3.520880000000000000e+05
-3.545510000000000000e+05
-3.529090000000000000e+05
-3.487470000000000000e+05
-3.483070000000000000e+05
-3.524570000000000000e+05
-3.549630000000000000e+05
-3.533330000000000000e+05
-3.491710000000000000e+05
-3.486880000000000000e+05
-3.526620000000000000e+05
-3.551490000000000000e+05
-3.536180000000000000e+05
-3.494440000000000000e+05
-3.488110000000000000e+05
-3.528320000000000000e+05
-3.555230000000000000e+05
-3.538510000000000000e+05
-3.498250000000000000e+05
-3.492420000000000000e+05
-3.531210000000000000e+05
-3.558590000000000000e+05
-3.543720000000000000e+05
-3.502090000000000000e+05
-3.494540000000000000e+05
-3.533600000000000000e+05
-3.559970000000000000e+05
-3.546380000000000000e+05
-3.506940000000000000e+05
-3.498090000000000000e+05
-3.537340000000000000e+05
-3.564120000000000000e+05
-3.550820000000000000e+05
-3.509460000000000000e+05
-3.500060000000000000e+05
-3.538790000000000000e+05
-3.568460000000000000e+05
-3.555140000000000000e+05
-3.512970000000000000e+05
-3.502170000000000000e+05
-3.541710000000000000e+05
-3.570780000000000000e+05
-3.557330000000000000e+05
-3.515400000000000000e+05
-3.505870000000000000e+05
-3.544460000000000000e+05
-3.573500000000000000e+05
-3.561600000000000000e+05
-3.519940000000000000e+05
-3.508300000000000000e+05
-3.546430000000000000e+05
-3.575490000000000000e+05
-3.562670000000000000e+05
-3.522510000000000000e+05
-3.510510000000000000e+05
-3.548470000000000000e+05
-3.577570000000000000e+05
-3.566240000000000000e+05
-3.523970000000000000e+05
-3.512890000000000000e+05
-3.550390000000000000e+05
-3.578730000000000000e+05
-3.570480000000000000e+05
-3.530240000000000000e+05
-3.514220000000000000e+05
-3.550900000000000000e+05
-3.581070000000000000e+05
-3.571600000000000000e+05
-3.532000000000000000e+05
-3.516070000000000000e+05
-3.552320000000000000e+05
-3.581860000000000000e+05
-3.572520000000000000e+05
-3.533590000000000000e+05
-3.517440000000000000e+05
-3.553460000000000000e+05
-3.583050000000000000e+05
-3.574150000000000000e+05
-3.535490000000000000e+05
-3.518420000000000000e+05
-3.553770000000000000e+05
-3.583710000000000000e+05
-3.576410000000000000e+05
-3.538890000000000000e+05
-3.519670000000000000e+05
-3.554370000000000000e+05
-3.585520000000000000e+05
-3.580580000000000000e+05
-3.541440000000000000e+05
-3.521820000000000000e+05
-3.555190000000000000e+05
-3.586750000000000000e+05
-3.581160000000000000e+05
-3.542100000000000000e+05
-3.522240000000000000e+05
-3.555360000000000000e+05
-3.587780000000000000e+05
-3.582980000000000000e+05
-3.543840000000000000e+05
-3.521570000000000000e+05
-3.555320000000000000e+05
-3.589740000000000000e+05
-3.584800000000000000e+05
-3.545110000000000000e+05
-3.523540000000000000e+05
-3.556150000000000000e+05
-3.589650000000000000e+05
-3.585490000000000000e+05
-3.546660000000000000e+05
-3.522850000000000000e+05
-3.554740000000000000e+05
-3.590530000000000000e+05
-3.586560000000000000e+05
-3.547980000000000000e+05
-3.525390000000000000e+05
-3.556280000000000000e+05
-3.590790000000000000e+05
-3.588960000000000000e+05
-3.550570000000000000e+05
-3.526080000000000000e+05
-3.556440000000000000e+05
-3.590870000000000000e+05
-3.588840000000000000e+05
-3.551050000000000000e+05
-3.526770000000000000e+05
-3.557260000000000000e+05
-3.591300000000000000e+05
-3.590640000000000000e+05
-3.552860000000000000e+05
-3.525510000000000000e+05
-3.554920000000000000e+05
-3.591130000000000000e+05
-3.591440000000000000e+05
-3.554320000000000000e+05
-3.527690000000000000e+05
-3.556560000000000000e+05
-3.593220000000000000e+05
-3.593460000000000000e+05
-3.556640000000000000e+05
-3.528360000000000000e+05
-3.555060000000000000e+05
-3.590790000000000000e+05
-3.588370000000000000e+05
-3.549070000000000000e+05
-3.519230000000000000e+05
-3.545690000000000000e+05
-3.581700000000000000e+05
-3.584160000000000000e+05
-3.553180000000000000e+05
-3.532240000000000000e+05
-3.567930000000000000e+05
-3.605090000000000000e+05
-3.602390000000000000e+05
-3.563930000000000000e+05
-3.531470000000000000e+05
-3.556590000000000000e+05
-3.593940000000000000e+05
-3.594860000000000000e+05
-3.557510000000000000e+05
-3.527730000000000000e+05
-3.554560000000000000e+05
-3.591340000000000000e+05
-3.592660000000000000e+05
-3.559120000000000000e+05
-3.532000000000000000e+05
-3.556370000000000000e+05
-3.593160000000000000e+05
-3.596660000000000000e+05
-3.561560000000000000e+05
-3.530870000000000000e+05
-3.552980000000000000e+05
-3.589660000000000000e+05
-3.596760000000000000e+05
-3.563430000000000000e+05
-3.533090000000000000e+05
-3.555280000000000000e+05
-3.591270000000000000e+05
-3.595250000000000000e+05
-3.562210000000000000e+05
-3.530120000000000000e+05
-3.551820000000000000e+05
-3.589130000000000000e+05
-3.595370000000000000e+05
-3.562570000000000000e+05
-3.531010000000000000e+05
-3.552440000000000000e+05
-3.590120000000000000e+05
-3.595740000000000000e+05
-3.563020000000000000e+05
-3.529570000000000000e+05
-3.550340000000000000e+05
-3.587290000000000000e+05
-3.593560000000000000e+05
-3.560470000000000000e+05
-3.526810000000000000e+05
-3.549150000000000000e+05
-3.587960000000000000e+05
-3.594860000000000000e+05
-3.563310000000000000e+05
-3.527860000000000000e+05
-3.546550000000000000e+05
-3.586820000000000000e+05
-3.594840000000000000e+05
-3.563340000000000000e+05
-3.528120000000000000e+05
-3.545920000000000000e+05
-3.585190000000000000e+05
-3.592820000000000000e+05
-3.560980000000000000e+05
-3.527780000000000000e+05
-3.544910000000000000e+05
-3.583540000000000000e+05
-3.593120000000000000e+05
-3.561130000000000000e+05
-3.527430000000000000e+05
-3.544560000000000000e+05
-3.582910000000000000e+05
-3.593290000000000000e+05
-3.563360000000000000e+05
-3.525800000000000000e+05
-3.542090000000000000e+05
-3.582290000000000000e+05
-3.591290000000000000e+05
-3.561600000000000000e+05
-3.525220000000000000e+05
-3.539610000000000000e+05
-3.580880000000000000e+05
-3.590750000000000000e+05
-3.561420000000000000e+05
-3.524840000000000000e+05
-3.538520000000000000e+05
-3.576350000000000000e+05
-3.588320000000000000e+05
-3.561270000000000000e+05
-3.524500000000000000e+05
-3.537370000000000000e+05
-3.576330000000000000e+05
-3.588410000000000000e+05
-3.559590000000000000e+05
-3.522850000000000000e+05
-3.536590000000000000e+05
-3.575090000000000000e+05
-3.588560000000000000e+05
-3.560470000000000000e+05
-3.521390000000000000e+05
-3.532700000000000000e+05
-3.572870000000000000e+05
-3.585630000000000000e+05
-3.555770000000000000e+05
-3.519590000000000000e+05
-3.532620000000000000e+05
-3.572220000000000000e+05
-3.586040000000000000e+05
-3.559860000000000000e+05
-3.519650000000000000e+05
-3.529460000000000000e+05
-3.569760000000000000e+05
-3.583950000000000000e+05
-3.556840000000000000e+05
-3.518680000000000000e+05
-3.528310000000000000e+05
-3.567170000000000000e+05
-3.582660000000000000e+05
-3.556630000000000000e+05
-3.516860000000000000e+05
-3.525820000000000000e+05
-3.565090000000000000e+05
-3.580440000000000000e+05
-3.555050000000000000e+05
-3.516560000000000000e+05
-3.524040000000000000e+05
-3.564260000000000000e+05
-3.580310000000000000e+05
-3.555060000000000000e+05
-3.516110000000000000e+05
-3.522260000000000000e+05
-3.561940000000000000e+05
-3.578950000000000000e+05
-3.554390000000000000e+05
-3.513850000000000000e+05
-3.520940000000000000e+05
-3.559850000000000000e+05
-3.576330000000000000e+05
-3.553930000000000000e+05
-3.514510000000000000e+05
-3.519470000000000000e+05
-3.558880000000000000e+05
-3.576310000000000000e+05
-3.553640000000000000e+05
-3.513840000000000000e+05
-3.516910000000000000e+05
-3.556130000000000000e+05
-3.576510000000000000e+05
-3.552690000000000000e+05
-3.510300000000000000e+05
-3.512890000000000000e+05
-3.553000000000000000e+05
-3.573490000000000000e+05
-3.550910000000000000e+05
-3.510070000000000000e+05
-3.513530000000000000e+05
-3.553820000000000000e+05
-3.571080000000000000e+05
-3.546730000000000000e+05
-3.504410000000000000e+05
-3.503890000000000000e+05
-3.540270000000000000e+05
-3.560520000000000000e+05
-3.539800000000000000e+05
-3.500790000000000000e+05
-3.508510000000000000e+05
-3.557130000000000000e+05
-3.580520000000000000e+05
-3.559870000000000000e+05
-3.516560000000000000e+05
-3.512290000000000000e+05
-3.547820000000000000e+05
-3.566440000000000000e+05
-3.547220000000000000e+05
-3.506200000000000000e+05
-3.503610000000000000e+05
-3.541720000000000000e+05
-3.563220000000000000e+05
-3.545190000000000000e+05
-3.503720000000000000e+05
-3.501780000000000000e+05
-3.541770000000000000e+05
-3.562670000000000000e+05
-3.545540000000000000e+05
-3.504070000000000000e+05
-3.500610000000000000e+05
-3.539070000000000000e+05
-3.560820000000000000e+05
-3.543890000000000000e+05
-3.502090000000000000e+05
-3.497850000000000000e+05
-3.536100000000000000e+05
-3.558660000000000000e+05
-3.542390000000000000e+05
-3.500190000000000000e+05
-3.496280000000000000e+05
-3.533900000000000000e+05
-3.557490000000000000e+05
-3.542110000000000000e+05
-3.500690000000000000e+05
-3.493950000000000000e+05
-3.531910000000000000e+05
-3.555750000000000000e+05
-3.539860000000000000e+05
-3.498810000000000000e+05
-3.491310000000000000e+05
-3.530290000000000000e+05
-3.554260000000000000e+05
-3.538650000000000000e+05
-3.496960000000000000e+05
-3.488370000000000000e+05
-3.528370000000000000e+05
-3.553300000000000000e+05
-3.538370000000000000e+05
-3.498030000000000000e+05
-3.489520000000000000e+05
-3.525830000000000000e+05
-3.551680000000000000e+05
-3.537140000000000000e+05
-3.494920000000000000e+05
-3.487010000000000000e+05
-3.523260000000000000e+05
-3.549510000000000000e+05
-3.537040000000000000e+05
-3.495030000000000000e+05
-3.484430000000000000e+05
-3.522340000000000000e+05
-3.548550000000000000e+05
-3.535350000000000000e+05
-3.493780000000000000e+05
-3.481410000000000000e+05
-3.519120000000000000e+05
-3.546440000000000000e+05
-3.534390000000000000e+05
-3.493350000000000000e+05
-3.480760000000000000e+05
-3.516140000000000000e+05
-3.544160000000000000e+05
-3.533160000000000000e+05
-3.493710000000000000e+05
-3.478850000000000000e+05
-3.513560000000000000e+05
-3.542940000000000000e+05
-3.533060000000000000e+05
-3.492140000000000000e+05
-3.478360000000000000e+05
-3.512680000000000000e+05
-3.540320000000000000e+05
-3.530240000000000000e+05
-3.490820000000000000e+05
-3.476470000000000000e+05
-3.511440000000000000e+05
-3.539320000000000000e+05
-3.528790000000000000e+05
-3.488220000000000000e+05
-3.472310000000000000e+05
-3.507480000000000000e+05
-3.538130000000000000e+05
-3.529100000000000000e+05
-3.488720000000000000e+05
-3.470670000000000000e+05
-3.505840000000000000e+05
-3.535970000000000000e+05
-3.527390000000000000e+05
-3.488610000000000000e+05
-3.469320000000000000e+05
-3.502840000000000000e+05
-3.534120000000000000e+05
-3.525980000000000000e+05
-3.486170000000000000e+05
-3.465560000000000000e+05
-3.500580000000000000e+05
-3.533670000000000000e+05
-3.526710000000000000e+05
-3.485820000000000000e+05
-3.467440000000000000e+05
-3.500100000000000000e+05
-3.529820000000000000e+05
-3.523510000000000000e+05
-3.485970000000000000e+05
-3.464270000000000000e+05
-3.496660000000000000e+05
-3.530470000000000000e+05
-3.524970000000000000e+05
-3.485360000000000000e+05
-3.463060000000000000e+05
-3.494240000000000000e+05
-3.527950000000000000e+05
-3.523870000000000000e+05
-3.483770000000000000e+05
-3.460970000000000000e+05
-3.494220000000000000e+05
-3.526770000000000000e+05
-3.521530000000000000e+05
-3.483410000000000000e+05
-3.460940000000000000e+05
-3.493250000000000000e+05
-3.525640000000000000e+05
-3.520800000000000000e+05
-3.482430000000000000e+05
-3.458760000000000000e+05
-3.488330000000000000e+05
-3.522240000000000000e+05
-3.520630000000000000e+05
-3.483700000000000000e+05
-3.459910000000000000e+05
-3.487790000000000000e+05
-3.521710000000000000e+05
-3.518970000000000000e+05
-3.480720000000000000e+05
-3.455620000000000000e+05
-3.485460000000000000e+05
-3.519980000000000000e+05
-3.517510000000000000e+05
-3.480610000000000000e+05
-3.456380000000000000e+05
-3.483330000000000000e+05
-3.516470000000000000e+05
-3.511140000000000000e+05
-3.472190000000000000e+05
-3.448260000000000000e+05
-3.474260000000000000e+05
-3.506630000000000000e+05
-3.505650000000000000e+05
-3.472620000000000000e+05
-3.452340000000000000e+05
-3.488930000000000000e+05
-3.528290000000000000e+05
-3.526500000000000000e+05
-3.486190000000000000e+05
-3.456820000000000000e+05
-3.481070000000000000e+05
-3.513430000000000000e+05
-3.514440000000000000e+05
-3.477180000000000000e+05
-3.448170000000000000e+05
-3.475350000000000000e+05
-3.510990000000000000e+05
-3.510530000000000000e+05
-3.475000000000000000e+05
-3.448490000000000000e+05
-3.473930000000000000e+05
-3.510110000000000000e+05
-3.510720000000000000e+05
-3.475040000000000000e+05
-3.445810000000000000e+05
-3.470210000000000000e+05
-3.504720000000000000e+05
-3.508000000000000000e+05
-3.472970000000000000e+05
-3.443090000000000000e+05
-3.469140000000000000e+05
-3.504790000000000000e+05
-3.505460000000000000e+05
-3.471320000000000000e+05
-3.441850000000000000e+05
-3.467040000000000000e+05
-3.502920000000000000e+05
-3.504670000000000000e+05
-3.469960000000000000e+05
-3.438960000000000000e+05
-3.464340000000000000e+05
-3.501560000000000000e+05
-3.503960000000000000e+05
-3.470220000000000000e+05
-3.438860000000000000e+05
-3.460880000000000000e+05
-3.499130000000000000e+05
-3.502500000000000000e+05
-3.468050000000000000e+05
-3.437170000000000000e+05
-3.459590000000000000e+05
-3.496950000000000000e+05
-3.500910000000000000e+05
-3.465640000000000000e+05
-3.433060000000000000e+05
-3.457350000000000000e+05
-3.495380000000000000e+05
-3.499470000000000000e+05
-3.466720000000000000e+05
-3.433840000000000000e+05
-3.455190000000000000e+05
-3.492360000000000000e+05
-3.498740000000000000e+05
-3.465520000000000000e+05
-3.431950000000000000e+05
-3.453430000000000000e+05
-3.490870000000000000e+05
-3.496550000000000000e+05
-3.464490000000000000e+05
-3.430760000000000000e+05
-3.451840000000000000e+05
-3.490320000000000000e+05
-3.494220000000000000e+05
-3.462910000000000000e+05
-3.430260000000000000e+05
-3.449490000000000000e+05
-3.487020000000000000e+05
-3.495890000000000000e+05
-3.463610000000000000e+05
-3.429940000000000000e+05
-3.449660000000000000e+05
-3.487740000000000000e+05
-3.495140000000000000e+05
-3.463520000000000000e+05
-3.428430000000000000e+05
-3.446070000000000000e+05
-3.485730000000000000e+05
-3.493670000000000000e+05
-3.462570000000000000e+05
-3.427510000000000000e+05
-3.443830000000000000e+05
-3.484750000000000000e+05
-3.494040000000000000e+05
-3.461740000000000000e+05
-3.424730000000000000e+05
-3.443570000000000000e+05
-3.482410000000000000e+05
-3.491520000000000000e+05
-3.461640000000000000e+05
-3.425510000000000000e+05
-3.441490000000000000e+05
-3.481240000000000000e+05
-3.490320000000000000e+05
-3.460340000000000000e+05
-3.424320000000000000e+05
-3.440120000000000000e+05
-3.478330000000000000e+05
-3.488870000000000000e+05
-3.459900000000000000e+05
-3.422410000000000000e+05
-3.437660000000000000e+05
-3.476370000000000000e+05
-3.487000000000000000e+05
-3.457790000000000000e+05
-3.420660000000000000e+05
-3.434520000000000000e+05
-3.472620000000000000e+05
-3.484110000000000000e+05
-3.457960000000000000e+05
-3.420960000000000000e+05
-3.435450000000000000e+05
-3.474200000000000000e+05
-3.485190000000000000e+05
-3.456750000000000000e+05
-3.419210000000000000e+05
-3.432360000000000000e+05
-3.470670000000000000e+05
-3.483480000000000000e+05
-3.456880000000000000e+05
-3.419080000000000000e+05
-3.430640000000000000e+05
-3.469630000000000000e+05
-3.481550000000000000e+05
-3.454010000000000000e+05
-3.417770000000000000e+05
-3.429240000000000000e+05
-3.466950000000000000e+05
-3.480130000000000000e+05
-3.456360000000000000e+05
-3.417660000000000000e+05
-3.426130000000000000e+05
-3.465540000000000000e+05
-3.480210000000000000e+05
-3.455520000000000000e+05
-3.416760000000000000e+05
-3.424510000000000000e+05
-3.462420000000000000e+05
-3.477900000000000000e+05
-3.454190000000000000e+05
-3.414920000000000000e+05
-3.422480000000000000e+05
-3.462210000000000000e+05
-3.478570000000000000e+05
-3.454010000000000000e+05
-3.414340000000000000e+05
-3.421200000000000000e+05
-3.457830000000000000e+05
-3.470040000000000000e+05
-3.444000000000000000e+05
-3.404020000000000000e+05
-3.408210000000000000e+05
-3.446090000000000000e+05
-3.467220000000000000e+05
-3.451090000000000000e+05
-3.419010000000000000e+05
-3.427660000000000000e+05
-3.467940000000000000e+05
-3.483850000000000000e+05
-3.457540000000000000e+05
-3.415270000000000000e+05
-3.416860000000000000e+05
-3.453250000000000000e+05
-3.470740000000000000e+05
-3.448740000000000000e+05
-3.408840000000000000e+05
-3.412060000000000000e+05
-3.451040000000000000e+05
-3.470140000000000000e+05
-3.447410000000000000e+05
-3.406760000000000000e+05
-3.411670000000000000e+05
-3.451170000000000000e+05
-3.469760000000000000e+05
-3.448320000000000000e+05
-3.407550000000000000e+05
-3.409310000000000000e+05
-3.447720000000000000e+05
-3.468060000000000000e+05
-3.447990000000000000e+05
-3.407530000000000000e+05
-3.407510000000000000e+05
-3.445520000000000000e+05
-3.466590000000000000e+05
-3.446160000000000000e+05
-3.405580000000000000e+05
-3.404890000000000000e+05
-3.445500000000000000e+05
-3.467090000000000000e+05
-3.446230000000000000e+05
-3.404870000000000000e+05
-3.403830000000000000e+05
-3.441390000000000000e+05
-3.463280000000000000e+05
-3.444490000000000000e+05
-3.403840000000000000e+05
-3.402090000000000000e+05
-3.439510000000000000e+05
-3.461860000000000000e+05
-3.443780000000000000e+05
-3.403770000000000000e+05
-3.401150000000000000e+05
-3.438940000000000000e+05
-3.459930000000000000e+05
-3.442510000000000000e+05
-3.402730000000000000e+05
-3.398260000000000000e+05
-3.435640000000000000e+05
-3.458790000000000000e+05
-3.442370000000000000e+05
-3.400840000000000000e+05
-3.397070000000000000e+05
-3.434910000000000000e+05
-3.457940000000000000e+05
-3.441010000000000000e+05
-3.400220000000000000e+05
-3.394530000000000000e+05
-3.431630000000000000e+05
-3.456120000000000000e+05
-3.440710000000000000e+05
-3.399460000000000000e+05
-3.393240000000000000e+05
-3.429960000000000000e+05
-3.454850000000000000e+05
-3.439300000000000000e+05
-3.399190000000000000e+05
-3.392800000000000000e+05
-3.429050000000000000e+05
-3.453610000000000000e+05
-3.437980000000000000e+05
-3.397340000000000000e+05
-3.389220000000000000e+05
-3.427550000000000000e+05
-3.452390000000000000e+05
-3.437440000000000000e+05
-3.397710000000000000e+05
-3.389340000000000000e+05
-3.426530000000000000e+05
-3.452520000000000000e+05
-3.439160000000000000e+05
-3.398560000000000000e+05
-3.387740000000000000e+05
-3.424210000000000000e+05
-3.449610000000000000e+05
-3.437760000000000000e+05
-3.395340000000000000e+05
-3.384340000000000000e+05
-3.423190000000000000e+05
-3.449160000000000000e+05
-3.436260000000000000e+05
-3.396500000000000000e+05
-3.385180000000000000e+05
-3.420840000000000000e+05
-3.446900000000000000e+05
-3.434160000000000000e+05
-3.395240000000000000e+05
-3.382470000000000000e+05
-3.418710000000000000e+05
-3.446200000000000000e+05
-3.434740000000000000e+05
-3.394810000000000000e+05
-3.381310000000000000e+05
-3.416870000000000000e+05
-3.446140000000000000e+05
-3.434190000000000000e+05
-3.393790000000000000e+05
-3.379910000000000000e+05
-3.413710000000000000e+05
-3.442920000000000000e+05
-3.432560000000000000e+05
-3.392870000000000000e+05
-3.377520000000000000e+05
-3.411890000000000000e+05
-3.441610000000000000e+05
-3.431260000000000000e+05
-3.391390000000000000e+05
-3.374360000000000000e+05
-3.410210000000000000e+05
-3.441340000000000000e+05
-3.432530000000000000e+05
-3.393010000000000000e+05
-3.375870000000000000e+05
-3.408470000000000000e+05
-3.439030000000000000e+05
-3.430490000000000000e+05
-3.390120000000000000e+05
-3.373290000000000000e+05
-3.406920000000000000e+05
-3.436580000000000000e+05
-3.429200000000000000e+05
-3.390010000000000000e+05
-3.371390000000000000e+05
-3.405680000000000000e+05
-3.435940000000000000e+05
-3.430090000000000000e+05
-3.391700000000000000e+05
-3.371260000000000000e+05
-3.403900000000000000e+05
-3.433980000000000000e+05
-3.426510000000000000e+05
-3.388570000000000000e+05
-3.368620000000000000e+05
-3.401160000000000000e+05
-3.432420000000000000e+05
-3.426450000000000000e+05
-3.389460000000000000e+05
-3.368110000000000000e+05
-3.397510000000000000e+05
-3.426540000000000000e+05
-3.419620000000000000e+05
-3.380590000000000000e+05
-3.357660000000000000e+05
-3.386990000000000000e+05
-3.419670000000000000e+05
-3.419840000000000000e+05
-3.389360000000000000e+05
-3.374010000000000000e+05
-3.407710000000000000e+05
-3.439670000000000000e+05
-3.433450000000000000e+05
-3.394000000000000000e+05
-3.368110000000000000e+05
-3.394860000000000000e+05
-3.426590000000000000e+05
-3.423820000000000000e+05
-3.386250000000000000e+05
-3.362740000000000000e+05
-3.392510000000000000e+05
-3.426560000000000000e+05
-3.424580000000000000e+05
-3.386480000000000000e+05
-3.360640000000000000e+05
-3.389620000000000000e+05
-3.424590000000000000e+05
-3.422290000000000000e+05
-3.385860000000000000e+05
-3.360210000000000000e+05
-3.387810000000000000e+05
-3.421420000000000000e+05
-3.420810000000000000e+05
-3.384970000000000000e+05
-3.358220000000000000e+05
-3.385320000000000000e+05
-3.421510000000000000e+05
-3.420350000000000000e+05
-3.384020000000000000e+05
-3.357410000000000000e+05
-3.383660000000000000e+05
-3.418520000000000000e+05
-3.418980000000000000e+05
-3.382680000000000000e+05
-3.355260000000000000e+05
-3.381210000000000000e+05
-3.415490000000000000e+05
-3.416840000000000000e+05
-3.381200000000000000e+05
-3.352370000000000000e+05
-3.379440000000000000e+05
-3.416300000000000000e+05
-3.415770000000000000e+05
-3.381640000000000000e+05
-3.353060000000000000e+05
-3.377510000000000000e+05
-3.412030000000000000e+05
-3.414110000000000000e+05
-3.380310000000000000e+05
-3.350570000000000000e+05
-3.375300000000000000e+05
-3.411620000000000000e+05
-3.412860000000000000e+05
-3.378440000000000000e+05
-3.348710000000000000e+05
-3.373520000000000000e+05
-3.409750000000000000e+05
-3.411150000000000000e+05
-3.376740000000000000e+05
-3.346510000000000000e+05
-3.371560000000000000e+05
-3.409020000000000000e+05
-3.412190000000000000e+05
-3.378890000000000000e+05
-3.348330000000000000e+05
-3.370280000000000000e+05
-3.405430000000000000e+05
-3.409850000000000000e+05
-3.377960000000000000e+05
-3.345860000000000000e+05
-3.367880000000000000e+05
-3.404070000000000000e+05
-3.410130000000000000e+05
-3.377970000000000000e+05
-3.344400000000000000e+05
-3.365770000000000000e+05
-3.402480000000000000e+05
-3.408390000000000000e+05
-3.375800000000000000e+05
-3.343670000000000000e+05
-3.364830000000000000e+05
-3.400420000000000000e+05
-3.408060000000000000e+05
-3.376640000000000000e+05
-3.344000000000000000e+05
-3.364040000000000000e+05
-3.400220000000000000e+05
-3.406990000000000000e+05
-3.375770000000000000e+05
-3.340560000000000000e+05
-3.360170000000000000e+05
-3.399580000000000000e+05
-3.406660000000000000e+05
-3.375560000000000000e+05
-3.340450000000000000e+05
-3.359760000000000000e+05
-3.397640000000000000e+05
-3.405110000000000000e+05
-3.374830000000000000e+05
-3.340820000000000000e+05
-3.357630000000000000e+05
-3.395590000000000000e+05
-3.404190000000000000e+05
-3.373330000000000000e+05
-3.338150000000000000e+05
-3.355340000000000000e+05
-3.392610000000000000e+05
-3.402130000000000000e+05
-3.374400000000000000e+05
-3.337140000000000000e+05
-3.353320000000000000e+05
-3.391860000000000000e+05
-3.401070000000000000e+05
-3.371820000000000000e+05
-3.336680000000000000e+05
-3.350620000000000000e+05
-3.387590000000000000e+05
-3.399750000000000000e+05
-3.372330000000000000e+05
-3.335410000000000000e+05
-3.349120000000000000e+05
-3.387540000000000000e+05
-3.397460000000000000e+05
-3.370010000000000000e+05
-3.333650000000000000e+05
-3.346020000000000000e+05
-3.385180000000000000e+05
-3.396200000000000000e+05
-3.369960000000000000e+05
-3.334240000000000000e+05
-3.346960000000000000e+05
-3.384630000000000000e+05
-3.397220000000000000e+05
-3.370410000000000000e+05
-3.333170000000000000e+05
-3.344110000000000000e+05
-3.381110000000000000e+05
-3.394560000000000000e+05
-3.367830000000000000e+05
-3.330560000000000000e+05
-3.342640000000000000e+05
-3.380000000000000000e+05
-3.394260000000000000e+05
-3.368170000000000000e+05
-3.330400000000000000e+05
-3.339840000000000000e+05
-3.378760000000000000e+05
-3.393120000000000000e+05
-3.366840000000000000e+05
-3.324590000000000000e+05
-3.330660000000000000e+05
-3.369560000000000000e+05
-3.382990000000000000e+05
-3.355720000000000000e+05
-3.316810000000000000e+05
-3.328200000000000000e+05
-3.371710000000000000e+05
-3.394090000000000000e+05
-3.375180000000000000e+05
-3.337190000000000000e+05
-3.344140000000000000e+05
-3.380690000000000000e+05
-3.393220000000000000e+05
-3.366710000000000000e+05
-3.327040000000000000e+05
-3.332240000000000000e+05
-3.370710000000000000e+05
-3.386250000000000000e+05
-3.363030000000000000e+05
-3.324290000000000000e+05
-3.328600000000000000e+05
-3.366390000000000000e+05
-3.384800000000000000e+05
-3.362000000000000000e+05
-3.323450000000000000e+05
-3.327140000000000000e+05
-3.365790000000000000e+05
-3.383550000000000000e+05
-3.361400000000000000e+05
-3.322360000000000000e+05
-3.325160000000000000e+05
-3.363340000000000000e+05
-3.381510000000000000e+05
-3.362050000000000000e+05
-3.321520000000000000e+05
-3.323900000000000000e+05
-3.362410000000000000e+05
-3.381860000000000000e+05
-3.360490000000000000e+05
-3.320580000000000000e+05
-3.322290000000000000e+05
-3.361000000000000000e+05
-3.380770000000000000e+05
-3.358040000000000000e+05
-3.318900000000000000e+05
-3.320670000000000000e+05
-3.358630000000000000e+05
-3.378620000000000000e+05
-3.357120000000000000e+05
-3.318220000000000000e+05
-3.318640000000000000e+05
-3.356040000000000000e+05
-3.376330000000000000e+05
-3.355970000000000000e+05
-3.315710000000000000e+05
-3.314390000000000000e+05
-3.354640000000000000e+05
-3.376410000000000000e+05
-3.356360000000000000e+05
-3.316650000000000000e+05
-3.314990000000000000e+05
-3.353320000000000000e+05
-3.374300000000000000e+05
-3.355290000000000000e+05
-3.315380000000000000e+05
-3.313390000000000000e+05
-3.351370000000000000e+05
-3.372900000000000000e+05
-3.354840000000000000e+05
-3.314410000000000000e+05
-3.312440000000000000e+05
-3.349180000000000000e+05
-3.371290000000000000e+05
-3.354620000000000000e+05
-3.313160000000000000e+05
-3.309430000000000000e+05
-3.347550000000000000e+05
-3.371690000000000000e+05
-3.355350000000000000e+05
-3.313920000000000000e+05
-3.308460000000000000e+05
-3.346650000000000000e+05
-3.369260000000000000e+05
-3.352260000000000000e+05
-3.312370000000000000e+05
-3.307340000000000000e+05
-3.344830000000000000e+05
-3.368600000000000000e+05
-3.352680000000000000e+05
-3.313300000000000000e+05
-3.305260000000000000e+05
-3.341080000000000000e+05
-3.366590000000000000e+05
-3.352840000000000000e+05
-3.311690000000000000e+05
-3.302720000000000000e+05
-3.339620000000000000e+05
-3.364170000000000000e+05
-3.351430000000000000e+05
-3.311100000000000000e+05
-3.301890000000000000e+05
-3.337640000000000000e+05
-3.362420000000000000e+05
-3.347830000000000000e+05
-3.310170000000000000e+05
-3.300740000000000000e+05
-3.336920000000000000e+05
-3.362270000000000000e+05
-3.348480000000000000e+05
-3.309410000000000000e+05
-3.298540000000000000e+05
-3.333520000000000000e+05
-3.360130000000000000e+05
-3.347700000000000000e+05
-3.308020000000000000e+05
-3.297110000000000000e+05
-3.332350000000000000e+05
-3.360580000000000000e+05
-3.349050000000000000e+05
-3.308460000000000000e+05
-3.296370000000000000e+05
-3.331590000000000000e+05
-3.358370000000000000e+05
